Time,TargetPosition,CurrentPosition,Velocity,Acceleration,Error,Current,Torque
2.130631,0.178243,0.636454,-0.073260,21.592707,0.458210,-4.305055,0.000000
2.147663,0.260642,0.622416,-0.854701,46.205033,0.361773,-3.601954,-0.040000
2.164633,0.340575,0.605631,-1.538462,-0.000000,0.265056,-2.656801,-0.110000
2.181580,0.418018,0.597696,-1.538462,-23.055713,0.179678,-1.677070,-0.140000
2.198662,0.493446,0.590066,-1.538462,-0.000000,0.096621,-0.835653,-0.140000
2.213452,0.556447,0.581827,-1.636142,-0.000000,0.025380,-0.190183,-0.130000
2.230389,0.625789,0.571756,-1.733822,-0.000000,-0.054034,0.628181,-0.110000
2.247501,0.692608,0.563210,-1.733822,-0.000000,-0.129397,1.365861,-0.080000
2.264676,0.756207,0.558633,-1.489621,-22.788966,-0.197574,1.965226,-0.040000
2.279430,0.807930,0.559548,-1.050061,-23.643815,-0.248382,2.483907,0.000000
2.296288,0.863583,0.561685,-0.610501,-23.307545,-0.301898,2.887326,0.100000
2.313174,0.915494,0.568093,-0.073260,-45.971726,-0.347401,3.163956,0.180000
2.330110,0.963559,0.583963,0.854701,-72.564652,-0.379596,3.348376,0.210000
2.344908,1.002173,0.605631,1.880342,-69.307549,-0.396542,3.429060,0.250000
2.361741,1.042142,0.630655,2.759463,-47.097370,-0.411487,3.406007,0.280000
2.378691,1.078034,0.656291,3.394383,-22.855072,-0.421743,3.336850,0.280000
2.395685,1.109526,0.687419,4.175824,-45.557659,-0.422107,3.210061,0.270000
2.412607,1.136329,0.725872,5.152625,-46.163383,-0.410458,2.933431,0.260000
2.429504,1.158478,0.766461,5.982906,-46.726736,-0.392018,2.633748,0.250000
2.444221,1.173966,0.803693,6.617827,-46.472326,-0.370273,2.299487,0.250000
2.461144,1.187350,0.848859,7.252747,-45.583002,-0.338491,1.873016,0.250000
2.477949,1.195923,0.895247,7.789988,-23.687559,-0.300676,1.492650,0.240000
2.494885,1.199781,0.941024,8.131868,-0.000000,-0.258757,1.020073,0.210000
2.511737,1.198844,0.982834,8.131868,23.066098,-0.216011,0.605128,0.180000
2.526580,1.194077,1.016709,8.034188,-0.000000,-0.177368,0.328498,0.150000
2.543501,1.184150,1.054551,7.838828,23.188817,-0.129599,-0.144078,0.120000
2.560398,1.169489,1.090257,7.594628,23.162597,-0.079231,-0.582076,0.070000
2.578041,1.149162,1.123217,7.155067,21.876336,-0.025945,-1.031600,0.020000
2.593199,1.127651,1.146715,6.666667,22.916435,0.019064,-1.308230,0.000000
2.610510,1.098572,1.167468,5.836386,47.778429,0.068896,-1.654017,-0.050000
2.627455,1.065532,1.179370,4.810745,69.252878,0.113838,-1.826911,-0.090000
2.642305,1.032925,1.183642,3.833944,68.973068,0.150718,-1.999805,-0.140000
2.659134,0.991944,1.182727,2.661783,70.090105,0.190783,-2.276435,-0.170000
2.676016,0.946646,1.179065,1.684982,47.091957,0.232419,-2.391697,-0.180000
2.693321,0.895990,1.167163,0.512821,67.525551,0.271172,-2.506960,-0.170000
2.708757,0.847322,1.147631,-0.757021,70.564937,0.300309,-2.576117,-0.170000
2.725684,0.790314,1.119249,-2.173382,68.275751,0.328935,-2.622222,-0.180000
2.742688,0.729374,1.087205,-3.345543,68.344088,0.357831,-2.702906,-0.190000
2.759697,0.664909,1.051499,-4.420024,47.244007,0.386590,-2.691380,-0.180000
2.774391,0.606533,1.014572,-5.445665,68.359292,0.408039,-2.679853,-0.160000
2.791534,0.535456,0.964218,-6.764347,93.903283,0.428761,-2.714432,-0.150000
2.808906,0.460370,0.907759,-7.936508,67.510715,0.447389,-2.656801,-0.150000
2.823656,0.394362,0.857099,-8.864469,69.994309,0.462737,-2.656801,-0.170000
2.840498,0.316648,0.794842,-9.841270,47.260356,0.478194,-2.633748,-0.190000
2.857362,0.236549,0.728008,-10.818071,65.797648,0.491459,-2.541538,-0.190000
2.874200,0.154509,0.660258,-11.599512,45.822618,0.505749,-2.460855,-0.180000
2.891107,0.070289,0.587320,-12.380952,46.577993,0.517031,-2.414750,-0.170000
2.907995,-0.015440,0.509804,-13.260073,69.700583,0.525244,-2.368645,-0.180000
2.922804,-0.091746,0.440223,-13.894994,47.408010,0.531969,-2.299487,-0.190000
2.939631,-0.179518,0.359655,-14.481074,45.791888,0.539173,-2.241856,-0.190000
2.956503,-0.268417,0.276951,-15.018315,23.723221,0.545368,-2.299487,-0.180000
2.973350,-0.357835,0.192111,-15.506716,21.755524,0.549946,-2.391697,-0.200000
2.990033,-0.446779,0.113069,-15.604396,-0.000000,0.559849,-2.299487,-0.210000
3.006839,-0.536523,0.034028,-15.653236,-0.000000,0.570550,-2.334066,-0.200000
3.023639,-0.626134,-0.048981,-15.897436,-0.000000,0.577153,-2.391697,-0.200000
3.038535,-0.705303,-0.125582,-16.190476,-0.000000,0.579721,-2.345592,-0.220000
3.055305,-0.793884,-0.209506,-16.336996,-0.000000,0.584378,-2.403223,-0.230000
3.072189,-0.882243,-0.290379,-16.239316,-22.860173,0.591864,-2.518486,-0.250000
3.089563,-0.972044,-0.372778,-16.141636,-0.000000,0.599266,-2.668327,-0.260000
3.106897,-1.060236,-0.452735,-15.897436,-22.191530,0.607501,-2.691380,-0.280000
3.122099,-1.136221,-0.521706,-15.702076,-22.203556,0.614515,-2.852747,-0.270000
3.139249,-1.220193,-0.600443,-15.604396,-22.647873,0.619751,-2.806642,-0.280000
3.156429,-1.302218,-0.679179,-15.506716,-22.508517,0.623039,-2.979536,-0.310000
3.171352,-1.371577,-0.746319,-15.360195,-23.342071,0.625258,-3.025641,-0.330000
3.188583,-1.449275,-0.822614,-15.213675,-0.000000,0.626661,-3.083272,-0.340000
3.205669,-1.523567,-0.897688,-15.067155,-0.000000,0.625879,-3.083272,-0.340000
3.220486,-1.585619,-0.960250,-14.822955,-0.000000,0.625369,-3.152430,-0.360000
3.237412,-1.653617,-1.025559,-14.236874,-47.081134,0.628058,-3.532796,-0.410000
3.254344,-1.718373,-1.072251,-12.771673,-92.913034,0.646122,-3.936215,-0.490000
3.271217,-1.779478,-1.102464,-10.818071,-115.304521,0.677014,-4.477949,-0.550000
3.286125,-1.830481,-1.124437,-9.304029,-71.252178,0.706044,-4.892894,-0.570000
3.304488,-1.889280,-1.154955,-8.131868,-62.188832,0.734325,-5.469206,-0.610000
3.319698,-1.934492,-1.178454,-7.350427,-46.551531,0.756037,-5.964835,-0.670000
3.336613,-1.980923,-1.198291,-6.373626,-67.951132,0.782632,-6.368254,-0.730000
3.353435,-2.022952,-1.213550,-5.396825,-69.692678,0.809402,-6.748620,-0.790000
3.370339,-2.060902,-1.227283,-4.664225,-23.136437,0.833619,-7.209670,-0.840000
3.385163,-2.090563,-1.238270,-4.078144,-46.983948,0.852294,-7.474774,-0.850000
3.402120,-2.120260,-1.250172,-3.589744,-22.720720,0.870088,-7.762930,-0.860000
3.419095,-2.145383,-1.262989,-3.296703,-0.000000,0.882394,-7.855140,-0.890000
3.436189,-2.165955,-1.277943,-3.199023,-0.000000,0.888012,-7.958877,-0.950000
3.453163,-2.181630,-1.296559,-3.345543,23.097307,0.885071,-8.028034,-0.970000
3.470132,-2.192522,-1.317617,-3.589744,23.165217,0.874905,-7.866667,-0.990000
3.485011,-2.198116,-1.335317,-3.687424,-0.000000,0.862799,-7.751404,-1.000000
3.501881,-2.199970,-1.356374,-3.833944,23.668401,0.843596,-7.543932,-1.000000
3.518795,-2.197037,-1.380789,-4.126984,23.270477,0.816248,-7.186618,-1.000000
3.533583,-2.190547,-1.403677,-4.371184,22.395322,0.786870,-6.863883,-0.990000
3.550479,-2.178668,-1.431449,-4.713065,24.288595,0.747220,-6.414359,-0.960000
3.567363,-2.162073,-1.462577,-5.152625,22.292960,0.699496,-5.941783,-0.940000
3.584654,-2.140235,-1.494011,-5.396825,-0.000000,0.646224,-5.342418,-0.900000
3.599944,-2.116889,-1.521172,-5.543346,-0.000000,0.595717,-4.858315,-0.850000
3.617275,-2.085920,-1.552605,-5.689866,-0.000000,0.533315,-4.201319,-0.780000
3.634213,-2.051112,-1.582818,-5.787546,-0.000000,0.468293,-3.578901,-0.720000
3.648993,-2.017146,-1.608148,-5.787546,-0.000000,0.408998,-3.002589,-0.660000
3.665844,-1.974436,-1.636530,-5.738706,-0.000000,0.337906,-2.368645,-0.580000
3.683665,-1.924776,-1.665217,-5.641026,-0.000000,0.259559,-1.630965,-0.500000
3.699539,-1.876774,-1.689326,-5.494505,-0.000000,0.187447,-0.997021,-0.420000
3.715577,-1.824802,-1.710994,-5.201465,-21.684134,0.113808,-0.328498,-0.350000
3.731845,-1.768652,-1.729305,-4.810745,-19.899943,0.039347,0.236288,-0.280000
3.749591,-1.703624,-1.742733,-4.126984,-22.400220,-0.039109,0.870232,-0.220000
3.764642,-1.645537,-1.747005,-3.296703,-44.942960,-0.101469,1.296703,-0.160000
3.781620,-1.576939,-1.743343,-2.124542,-67.458840,-0.166404,1.792332,-0.090000
3.814415,-1.435950,-1.725643,-0.219780,-42.530886,-0.289693,2.633748,0.000000
3.832368,-1.354461,-1.708553,0.805861,-66.294502,-0.354092,3.025641,0.040000
3.847328,-1.284470,-1.685969,1.880342,-68.803184,-0.401500,3.221587,0.070000
3.864477,-1.202120,-1.649958,3.394383,-96.162428,-0.447838,3.417534,0.090000
3.881605,-1.117836,-1.604791,4.957265,-93.368283,-0.486956,3.532796,0.130000
3.898442,-1.033235,-1.552911,6.471306,-68.996299,-0.519676,3.625006,0.150000
3.913253,-0.957575,-1.500725,7.838828,-93.208969,-0.543150,3.475165,0.170000
3.930101,-0.870318,-1.432670,9.450549,-90.083559,-0.562351,3.406007,0.170000
3.946992,-0.781792,-1.354849,11.159951,-91.410090,-0.573056,3.244640,0.170000
3.963979,-0.691968,-1.270924,12.673993,-70.162123,-0.578956,2.933431,0.180000
3.980968,-0.601583,-1.180285,14.188034,-117.244741,-0.578702,2.702906,0.180000
3.995629,-0.523344,-1.095140,15.506716,-115.551677,-0.571796,2.322540,0.160000
4.012368,-0.433963,-0.988937,17.118437,-92.036398,-0.554974,1.838437,0.130000
4.029067,-0.344979,-0.875715,18.681319,-95.623766,-0.530736,1.400440,0.090000
4.045860,-0.255922,-0.755474,20.146520,-70.306605,-0.499552,0.881758,0.060000
4.062803,-0.166759,-0.631876,21.367521,-69.362307,-0.465117,0.282393,0.030000
4.079875,-0.077875,-0.506142,22.246642,-44.455298,-0.428267,-0.259341,0.000000
4.095048,0.000111,-0.393530,22.930403,-41.908759,-0.393641,-0.697338,-0.090000
4.112043,0.086106,-0.262608,23.711844,-68.649468,-0.348714,-1.285177,-0.170000
4.128970,0.170098,-0.132296,24.297924,-23.347391,-0.302394,-1.815385,-0.230000
4.145819,0.251822,-0.003510,24.590965,-22.466551,-0.255331,-2.414750,-0.280000
4.162728,0.331717,0.118257,24.395604,22.210779,-0.213459,-2.760537,-0.330000
4.177447,0.399364,0.218662,23.956044,46.018199,-0.180702,-2.818168,-0.380000
4.194523,0.475423,0.328832,23.223443,46.430193,-0.146591,-3.152430,-0.450000
4.211372,0.547721,0.432593,22.442002,46.472326,-0.115128,-3.233114,-0.520000
4.228330,0.617525,0.530251,21.514042,71.351450,-0.087274,-3.359902,-0.540000
4.243163,0.675986,0.608072,20.439560,90.591492,-0.067914,-3.256166,-0.540000
4.260000,0.739248,0.685588,18.974359,89.561706,-0.053660,-3.221587,-0.540000
4.276886,0.799210,0.756085,17.509158,90.053857,-0.043126,-2.956484,-0.550000
4.293806,0.855626,0.817121,15.897436,94.728329,-0.038505,-2.622222,-0.540000
4.310708,0.908158,0.868391,14.236874,94.032597,-0.039767,-2.380171,-0.530000
4.327540,0.956530,0.913252,12.673993,95.179469,-0.043278,-2.080488,-0.520000
4.342369,0.995776,0.948043,11.404151,88.612528,-0.047733,-1.803858,-0.470000
4.359215,1.036415,0.981613,10.036630,70.170134,-0.054802,-1.342808,-0.420000
4.376059,1.072751,1.007553,8.620269,91.257384,-0.065198,-1.066178,-0.380000
4.393058,1.104955,1.028000,7.252747,90.953496,-0.076955,-0.720391,-0.330000
4.410013,1.132518,1.043870,6.031746,92.046737,-0.088649,-0.328498,-0.280000
4.424807,1.152788,1.054551,5.103785,67.237422,-0.098237,-0.097973,-0.230000
4.441593,1.171462,1.064317,4.175824,70.516355,-0.107145,0.213236,-0.190000
4.458328,1.185452,1.072251,3.443223,47.276716,-0.113201,0.443761,-0.130000
4.475208,1.194846,1.076829,2.710623,47.408010,-0.118017,0.639707,-0.070000
4.509235,1.199285,1.077440,1.391941,23.360704,-0.121845,0.962442,0.000000
4.524494,1.194969,1.077134,1.001221,21.739362,-0.117835,0.962442,0.000000
4.542302,1.185010,1.077134,0.708181,-0.000000,-0.107875,0.950916,0.070000
4.557326,1.172505,1.077134,0.512821,-0.000000,-0.095371,0.893284,0.110000
4.574266,1.153940,1.076829,0.317460,22.855072,-0.077111,0.754969,0.130000
4.591367,1.130448,1.076829,0.219780,-0.000000,-0.053619,0.582076,0.160000
4.608304,1.102543,1.076524,0.122100,-0.000000,-0.026019,0.340024,0.170000
4.623187,1.074276,1.075914,0.073260,-0.000000,0.001638,0.074921,0.170000
4.640172,1.037815,1.073777,-0.073260,-0.000000,0.035962,-0.167131,0.180000
4.657089,0.997148,1.068894,-0.366300,23.355377,0.071746,-0.489866,0.170000
4.674042,0.952156,1.061875,-0.659341,22.929260,0.109720,-0.801074,0.150000
4.690872,0.903414,1.053025,-1.001221,23.366033,0.149612,-1.100757,0.130000
4.707796,0.850447,1.040208,-1.440781,46.700105,0.189761,-1.411966,0.090000
4.724773,0.793479,1.024033,-1.929182,22.916435,0.230554,-1.723175,0.060000
4.741750,0.732829,1.005722,-2.417582,22.464087,0.272893,-1.988278,0.000000
4.756639,0.676749,0.986191,-2.954823,45.992369,0.309442,-2.195751,0.000000
4.775623,0.601530,0.953841,-3.833944,46.822860,0.352312,-2.495433,-0.040000
4.792782,0.530162,0.918746,-4.713065,46.002698,0.388584,-2.714432,-0.080000
4.807571,0.466243,0.884871,-5.494505,68.864863,0.418628,-2.841221,-0.110000
4.824509,0.390481,0.841840,-6.324786,46.377635,0.451359,-2.944957,-0.140000
4.841543,0.311751,0.792706,-7.301587,46.231102,0.480955,-3.152430,-0.160000
4.858489,0.231120,0.739910,-8.229548,70.346845,0.508790,-3.221587,-0.190000
4.875346,0.148855,0.684977,-8.962149,46.377635,0.536123,-3.233114,-0.200000
4.890178,0.074959,0.631571,-9.792430,68.911195,0.556612,-3.279219,-0.210000
4.907013,-0.010419,0.563516,-10.866911,69.307549,0.573935,-3.244640,-0.230000
4.923845,-0.097145,0.491493,-11.843712,68.880300,0.588638,-3.348376,-0.250000
4.940818,-0.185746,0.417945,-12.625153,70.371011,0.603690,-3.233114,-0.250000
4.957655,-0.274512,0.339818,-13.455433,70.130097,0.614330,-3.210061,-0.260000
4.974844,-0.365791,0.256504,-14.285714,45.873925,0.622295,-3.233114,-0.270000
4.990328,-0.448350,0.180514,-14.774115,22.983284,0.628864,-3.106325,-0.290000
5.007194,-0.538416,0.101167,-15.067155,23.917106,0.639584,-3.152430,-0.290000
5.021972,-0.617251,0.027619,-15.457875,23.451633,0.644870,-2.991062,-0.290000
5.038853,-0.706989,-0.062104,-16.092796,23.446264,0.644885,-2.979536,-0.300000
5.055660,-0.795753,-0.152743,-16.678877,46.184198,0.643011,-2.921905,-0.310000
5.072701,-0.884910,-0.241550,-16.874237,23.199322,0.643359,-2.875800,-0.310000
5.089488,-0.971661,-0.327916,-16.971917,23.925486,0.643744,-2.898852,-0.320000
5.106409,-1.057775,-0.414588,-16.971917,-23.196695,0.643187,-2.910379,-0.330000
5.121143,-1.131484,-0.487526,-16.874237,-0.000000,0.643958,-2.864274,-0.320000
5.138102,-1.214639,-0.572976,-16.874237,22.745949,0.641663,-2.760537,-0.310000
5.155012,-1.295540,-0.659342,-16.923077,22.898503,0.636197,-2.829695,-0.320000
5.171861,-1.373908,-0.742657,-16.825397,-0.000000,0.631252,-2.852747,-0.350000
5.188796,-1.450218,-0.825971,-16.678877,-0.000000,0.624247,-2.772063,-0.350000
5.205680,-1.523617,-0.907149,-16.483516,-23.230893,0.616468,-2.818168,-0.350000
5.222541,-1.594042,-0.976120,-15.653236,-92.566657,0.617922,-3.371429,-0.420000
5.239908,-1.663371,-1.014878,-13.211233,-152.191688,0.648493,-3.774847,-0.500000
5.256890,-1.727817,-1.040513,-10.866911,-113.364700,0.687305,-4.316581,-0.510000
5.271639,-1.780961,-1.069810,-9.792430,-46.828212,0.711151,-4.743053,-0.510000
5.290654,-1.845402,-1.118029,-9.352869,-22.740898,0.727373,-5.307839,-0.560000
5.305423,-1.892151,-1.152209,-8.962149,-47.059502,0.739942,-5.572943,-0.610000
5.322327,-1.941978,-1.185779,-8.327228,-23.283702,0.756199,-5.584469,-0.650000
5.339139,-1.987502,-1.224537,-8.131868,-0.000000,0.762965,-5.803468,-0.690000
5.356149,-2.029337,-1.261158,-7.838828,-23.586645,0.768179,-6.010940,-0.720000
5.373587,-2.067692,-1.291066,-7.252747,-21.606372,0.776626,-6.045519,-0.680000
5.388507,-2.096779,-1.318532,-6.959707,-0.000000,0.778247,-6.114676,-0.680000
5.405452,-2.125556,-1.355154,-7.008547,-0.000000,0.770402,-6.126203,-0.750000
5.422393,-2.149724,-1.392081,-7.106227,-0.000000,0.757643,-6.091624,-0.800000
5.437201,-2.167023,-1.423209,-7.106227,-0.000000,0.743814,-5.849573,-0.790000
5.454164,-2.182405,-1.459831,-7.106227,-23.328779,0.722575,-5.722784,-0.790000
5.471093,-2.192995,-1.491264,-6.862027,-22.466551,0.701730,-5.757363,-0.830000
5.488042,-2.198801,-1.510796,-5.982906,-46.742730,0.688005,-5.630574,-0.820000
5.502959,-2.199927,-1.526665,-5.347985,-22.513464,0.673261,-5.480733,-0.770000
5.519880,-2.196686,-1.549248,-5.103785,-23.564939,0.647437,-5.365470,-0.750000
5.536862,-2.188613,-1.572747,-4.957265,-22.926694,0.615866,-5.100366,-0.750000
5.553815,-2.175763,-1.595941,-4.859585,-0.000000,0.579822,-4.800684,-0.720000
5.569473,-2.159670,-1.620356,-4.957265,-0.000000,0.539314,-4.351160,-0.670000
5.587105,-2.136746,-1.649653,-5.152625,22.186723,0.487093,-3.890110,-0.650000
5.604147,-2.109814,-1.674372,-5.054945,-0.000000,0.435442,-3.394481,-0.600000
5.618989,-2.082599,-1.693904,-4.908425,-0.000000,0.388695,-2.933431,-0.540000
5.635883,-2.047440,-1.716182,-4.761905,-0.000000,0.331258,-2.483907,-0.500000
5.652865,-2.007704,-1.738460,-4.664225,-0.000000,0.269244,-1.861490,-0.470000
5.669747,-1.963950,-1.758907,-4.468864,-22.849973,0.205042,-1.319756,-0.410000
5.686857,-1.915404,-1.777829,-4.273504,-0.000000,0.137576,-0.743443,-0.350000
5.703721,-1.863555,-1.794003,-3.980464,-0.000000,0.069552,-0.121026,-0.300000
5.718502,-1.814958,-1.806516,-3.687424,-23.178322,0.008442,0.328498,-0.240000
5.735577,-1.755296,-1.815976,-3.150183,-22.952382,-0.060680,0.927863,-0.170000
5.752630,-1.692108,-1.817197,-2.319902,-44.196335,-0.125088,1.423492,-0.110000
5.767677,-1.633505,-1.814450,-1.538462,-44.325438,-0.180945,1.907595,-0.050000
5.784776,-1.563845,-1.811398,-0.903541,-45.021981,-0.247553,2.368645,0.000000
5.801719,-1.491794,-1.803159,-0.170940,-68.895744,-0.311364,2.749011,0.050000
5.818750,-1.416537,-1.785763,0.854701,-68.687832,-0.369226,3.117851,0.070000
5.833759,-1.348032,-1.761349,2.026862,-69.511372,-0.413317,3.348376,0.100000
5.850672,-1.268582,-1.726253,3.443223,-93.699262,-0.457671,3.567375,0.130000
5.867492,-1.187422,-1.684749,4.810745,-71.776458,-0.497326,3.636532,0.150000
5.882324,-1.114256,-1.640192,6.129426,-91.125450,-0.525936,3.648059,0.170000
5.899302,-1.028872,-1.578851,7.887668,-118.287338,-0.549979,3.555849,0.170000
5.916301,-0.941876,-1.508354,9.597070,-92.618972,-0.566478,3.463639,0.180000
5.933297,-0.853638,-1.431449,11.159951,-69.605849,-0.577810,3.244640,0.180000
5.948112,-0.775891,-1.358206,12.527473,-89.698965,-0.582315,3.037167,0.180000
5.964947,-0.686828,-1.266041,14.188034,-117.540746,-0.579213,2.668327,0.180000
5.981885,-0.596692,-1.165332,15.799756,-89.610679,-0.568639,2.276435,0.160000
5.998975,-0.505475,-1.058213,17.264957,-67.696633,-0.552738,1.873016,0.130000
6.015805,-0.415627,-0.945602,18.730159,-93.283248,-0.529975,1.388913,0.110000
6.032819,-0.325035,-0.826581,20.048840,-93.124224,-0.501546,0.812601,0.080000
6.047630,-0.246569,-0.720073,21.025641,-45.689754,-0.473504,0.409182,0.030000
6.064656,-0.157063,-0.593118,22.148962,-67.756344,-0.436056,-0.155604,-0.040000
6.081798,-0.067935,-0.460670,23.223443,-65.142043,-0.392735,-0.766496,-0.110000
6.096871,0.009412,-0.342565,23.956044,-43.907408,-0.351977,-1.239072,-0.150000
6.113866,0.095238,-0.213779,24.297924,-0.000000,-0.309017,-1.838437,-0.210000
6.130904,0.179578,-0.086213,24.493284,-0.000000,-0.265791,-2.218803,-0.290000
6.147887,0.261710,0.038605,24.493284,-0.000000,-0.223105,-2.610696,-0.350000
6.164891,0.341775,0.159762,24.249084,22.960100,-0.182013,-2.979536,-0.410000
6.180614,0.413673,0.263218,23.614164,41.229750,-0.150454,-3.060220,-0.450000
6.198912,0.494530,0.373083,22.539683,42.628241,-0.121447,-3.198535,-0.500000
6.214776,0.561977,0.466163,21.709402,64.641847,-0.095814,-3.406007,-0.540000
6.232526,0.634315,0.564431,20.683761,70.906892,-0.069883,-3.336850,-0.560000
6.249831,0.701442,0.646220,19.218559,88.968518,-0.055222,-3.187009,-0.570000
6.266846,0.763987,0.715496,17.557998,95.323412,-0.048491,-3.048694,-0.570000
6.283734,0.822493,0.778058,16.043956,93.785058,-0.044436,-2.645275,-0.550000
6.298725,0.871314,0.826276,14.676435,93.538818,-0.045038,-2.380171,-0.530000
6.315679,0.922860,0.873274,13.064713,92.881438,-0.049586,-2.068962,-0.520000
6.332654,0.970426,0.913252,11.550672,91.583777,-0.057174,-1.723175,-0.500000
6.349612,1.013768,0.948043,10.183150,91.542850,-0.065725,-1.400440,-0.430000
6.366587,1.052854,0.977646,8.913309,66.988232,-0.075208,-1.031600,-0.380000
6.383518,1.087440,1.001144,7.643468,93.881765,-0.086295,-0.662759,-0.340000
6.400374,1.117412,1.019760,6.471306,91.115317,-0.097652,-0.316972,-0.290000
