Time,TargetPosition,CurrentPosition,Velocity,Acceleration,Error,Current,Torque
2.280066,0.384813,0.618448,-0.659341,22.071976,0.233635,-1.896068,-0.050000
2.295003,0.337788,0.613870,-0.757021,23.454318,0.276083,-2.218803,-0.060000
2.312056,0.280865,0.604715,-1.050061,23.632904,0.323850,-2.553065,-0.080000
2.329170,0.220492,0.590677,-1.538462,21.778653,0.370185,-2.887326,-0.100000
2.346244,0.157273,0.573587,-2.075702,23.131212,0.416314,-3.244640,-0.140000
2.361344,0.099088,0.555276,-2.612943,44.977497,0.456188,-3.429060,-0.180000
2.379114,0.028140,0.528115,-3.394383,69.401472,0.499975,-3.717216,-0.210000
2.394324,-0.034479,0.499733,-4.126984,45.200797,0.534212,-3.890110,-0.250000
2.411611,-0.107497,0.464332,-4.908425,43.299516,0.571829,-4.120635,-0.270000
2.428839,-0.181924,0.425269,-5.689866,43.874494,0.607193,-4.201319,-0.300000
2.443818,-0.247735,0.385595,-6.520147,66.223064,0.633330,-4.235897,-0.330000
2.461082,-0.324571,0.333715,-7.594628,67.951132,0.658286,-4.351160,-0.360000
2.478308,-0.401977,0.277256,-8.571429,68.626470,0.679234,-4.374212,-0.380000
2.493292,-0.469657,0.225071,-9.352869,47.016298,0.694728,-4.408791,-0.400000
2.510485,-0.547420,0.163119,-10.134310,43.594384,0.710539,-4.385739,-0.420000
2.527836,-0.625697,0.095979,-10.964591,44.044294,0.721676,-4.258950,-0.430000
2.542884,-0.693156,0.034028,-11.697192,45.643942,0.727184,-4.189792,-0.420000
2.559914,-0.768744,-0.040436,-12.527473,44.834759,0.728308,-4.005372,-0.420000
2.576994,-0.843443,-0.118257,-13.308913,45.081429,0.725186,-3.913162,-0.440000
2.591928,-0.907597,-0.187228,-13.894994,68.572867,0.720368,-3.694164,-0.440000
2.608963,-0.979191,-0.268101,-14.481074,46.962405,0.711090,-3.544322,-0.430000
2.626374,-1.050319,-0.350805,-14.871795,22.513464,0.699514,-3.475165,-0.430000
2.641447,-1.109993,-0.419776,-14.969475,-0.000000,0.690217,-3.290745,-0.420000
2.658437,-1.174887,-0.496681,-15.018315,-0.000000,0.678205,-3.129377,-0.400000
2.674093,-1.232242,-0.571450,-15.262515,21.238985,0.660792,-2.898852,-0.390000
2.691134,-1.291763,-0.653544,-15.506716,23.368699,0.638220,-2.772063,-0.390000
2.708168,-1.348000,-0.731670,-15.457875,-0.000000,0.616330,-2.622222,-0.390000
2.725639,-1.402041,-0.808881,-15.213675,-23.225625,0.593160,-2.357118,-0.370000
2.740559,-1.445108,-0.874800,-15.115995,-0.000000,0.570308,-2.207277,-0.360000
2.757513,-1.490405,-0.947127,-14.822955,-23.212466,0.543278,-2.126593,-0.350000
2.774657,-1.532099,-1.013046,-14.236874,-45.240727,0.519052,-1.942173,-0.330000
2.791766,-1.569412,-1.075914,-13.699634,-22.827057,0.493498,-1.757753,-0.300000
2.806975,-1.598851,-1.133288,-13.406593,-21.916124,0.465564,-1.596386,-0.290000
2.824337,-1.628038,-1.196765,-13.064713,-22.590429,0.431273,-1.481123,-0.290000
2.841712,-1.652409,-1.251698,-12.283272,-68.382112,0.400712,-1.342808,-0.270000
2.856858,-1.669626,-1.294118,-11.550672,-44.780853,0.375509,-1.158388,-0.250000
2.874586,-1.684931,-1.343557,-10.866911,-45.350899,0.341374,-0.985495,-0.230000
2.891843,-1.694749,-1.390860,-10.378510,-22.728283,0.303890,-0.870232,-0.200000
2.908988,-1.699497,-1.432059,-9.694750,-47.298548,0.267438,-0.674286,-0.190000
2.924313,-1.699502,-1.461662,-8.815629,-66.740881,0.237840,-0.535971,-0.180000
2.941562,-1.694719,-1.489433,-7.789988,-66.900722,0.205286,-0.409182,-0.170000
2.958790,-1.684901,-1.514763,-6.959707,-44.244063,0.170138,-0.305446,-0.150000
2.973854,-1.672220,-1.533379,-6.227106,-45.325813,0.138841,-0.224762,-0.120000
2.991097,-1.653068,-1.548943,-5.299145,-45.920200,0.104125,-0.086447,-0.110000
3.008280,-1.629138,-1.557794,-4.224664,-67.083292,0.071344,0.051868,-0.110000
3.023502,-1.603980,-1.562066,-3.394383,-45.674473,0.041914,0.155604,-0.100000
3.041094,-1.570381,-1.562676,-2.417582,-67.861091,0.007704,0.259341,-0.080000
3.056280,-1.537588,-1.560845,-1.684982,-44.383060,-0.023258,0.409182,-0.060000
3.073798,-1.495542,-1.555047,-0.854701,-45.190826,-0.059505,0.524444,-0.070000
3.088838,-1.455974,-1.544976,-0.024420,-69.213880,-0.089002,0.605128,-0.090000
3.106060,-1.406901,-1.527886,0.952381,-67.853598,-0.120985,0.778022,-0.100000
3.123672,-1.352764,-1.505913,1.880342,-66.144660,-0.153148,0.870232,-0.090000
3.138928,-1.302827,-1.484550,2.612943,-46.257200,-0.181723,0.962442,-0.090000
3.156326,-1.242644,-1.456168,3.443223,-43.865099,-0.213525,1.077705,-0.100000
3.171448,-1.187730,-1.426261,4.273504,-68.996299,-0.238531,1.123810,-0.110000
3.188461,-1.123289,-1.385672,5.347985,-69.613733,-0.262383,1.135336,-0.120000
3.205542,-1.056010,-1.338369,6.471306,-70.242318,-0.282359,1.123810,-0.120000
3.222742,-0.985935,-1.284657,7.594628,-69.811432,-0.298722,1.135336,-0.090000
3.238176,-0.921306,-1.233387,8.522589,-46.678822,-0.312080,1.043126,-0.080000
3.255360,-0.847685,-1.172656,9.450549,-45.858521,-0.324970,0.962442,-0.070000
3.272570,-0.772491,-1.109178,10.280830,-45.879062,-0.336687,0.858706,-0.080000
3.287539,-0.706142,-1.050278,11.013431,-46.178993,-0.344137,0.708864,-0.100000
3.304635,-0.629576,-0.975204,12.087912,-69.755963,-0.345628,0.559023,-0.130000
3.322010,-0.551212,-0.892500,13.211233,-67.054014,-0.341288,0.443761,-0.120000
3.337121,-0.482866,-0.818952,13.992674,-45.512111,-0.336086,0.213236,-0.120000
3.354193,-0.405730,-0.734112,14.725275,-46.662873,-0.328382,-0.028816,-0.140000
3.371532,-0.327790,-0.643473,15.506716,-44.513258,-0.315683,-0.293919,-0.190000
3.386619,-0.260560,-0.561379,16.190476,-46.652246,-0.300819,-0.489866,-0.220000
3.403819,-0.184871,-0.467079,16.776557,-0.000000,-0.282208,-0.789548,-0.250000
3.421250,-0.109516,-0.372778,17.118437,-0.000000,-0.263262,-0.997021,-0.270000
3.436254,-0.045994,-0.293431,17.264957,-0.000000,-0.247437,-1.181441,-0.270000
3.453700,0.026032,-0.200656,17.411477,-0.000000,-0.226688,-1.411966,-0.310000
3.468853,0.086750,-0.118563,17.557998,-0.000000,-0.205313,-1.619438,-0.360000
3.485915,0.152823,-0.026703,17.655678,-0.000000,-0.179527,-1.769280,-0.390000
3.503466,0.217967,0.060883,17.362637,22.422287,-0.157084,-1.930647,-0.390000
3.518859,0.272524,0.133516,16.874237,44.096440,-0.139008,-2.057436,-0.400000
3.535997,0.330201,0.210422,16.336996,46.652246,-0.119779,-2.080488,-0.420000
3.551286,0.378735,0.275425,15.750916,43.626879,-0.103309,-2.138120,-0.440000
3.568747,0.430587,0.345312,15.018315,45.466655,-0.085275,-2.195751,-0.460000
3.584023,0.472651,0.402686,14.334554,43.808814,-0.069965,-2.161172,-0.460000
3.601205,0.516103,0.462196,13.504274,45.245723,-0.053907,-2.103541,-0.440000
3.618448,0.555427,0.515908,12.576313,69.771803,-0.039520,-2.115067,-0.430000
3.635809,0.590514,0.563516,11.550672,68.511710,-0.026998,-1.976752,-0.440000
3.650759,0.616991,0.599832,10.671551,46.106237,-0.017159,-1.907595,-0.440000
3.667986,0.643098,0.635843,9.548230,69.938550,-0.007254,-1.792332,-0.410000
3.682944,0.661861,0.662394,8.620269,45.041779,0.000533,-1.584860,-0.390000
3.700039,0.678777,0.687419,7.496947,69.081614,0.008641,-1.469597,-0.370000
3.717287,0.690886,0.708476,6.471306,66.915291,0.017590,-1.411966,-0.350000
3.734475,0.697945,0.724956,5.543346,45.679566,0.027011,-1.285177,-0.320000
3.749406,0.699997,0.735027,4.664225,68.465913,0.035030,-1.158388,-0.300000
3.766402,0.697707,0.742657,3.736264,45.021981,0.044950,-1.066178,-0.270000
3.784036,0.690135,0.744488,2.710623,66.258764,0.054353,-0.950916,-0.250000
3.798941,0.679633,0.743877,1.978022,43.996996,0.064245,-0.939389,-0.230000
3.815993,0.663054,0.743877,1.391941,21.743978,0.080823,-0.927863,-0.210000
3.833427,0.641137,0.741741,0.854701,23.094703,0.100604,-0.985495,-0.180000
3.848520,0.618179,0.737469,0.366300,43.668730,0.119289,-1.077705,-0.140000
3.865971,0.587129,0.730144,-0.170940,41.213160,0.143015,-1.158388,-0.110000
3.881775,0.554945,0.720989,-0.659341,43.221861,0.166043,-1.250598,-0.090000
3.898022,0.517961,0.708782,-1.196581,40.269316,0.190820,-1.423492,-0.080000
3.914716,0.475981,0.694743,-1.636142,20.550764,0.218762,-1.584860,-0.080000
3.931115,0.430981,0.681315,-1.978022,20.091213,0.250335,-1.746227,-0.070000
3.948469,0.379489,0.665446,-2.271062,22.705610,0.285957,-1.976752,-0.070000
3.965601,0.324965,0.645609,-2.759463,23.422137,0.320644,-2.207277,-0.070000
3.982662,0.267246,0.621805,-3.296703,22.392874,0.354559,-2.437802,-0.090000
3.997726,0.213640,0.598611,-3.785104,22.972974,0.384972,-2.599170,-0.120000
4.015153,0.148761,0.568704,-4.371184,22.143553,0.419942,-2.772063,-0.150000
4.032381,0.081878,0.535134,-5.006105,22.605386,0.453256,-2.979536,-0.170000
4.049622,0.012482,0.498207,-5.641026,23.159979,0.485725,-3.210061,-0.200000
4.066694,-0.058367,0.458839,-6.227106,22.839783,0.517206,-3.325324,-0.210000
4.081607,-0.121759,0.420996,-6.813187,46.577993,0.542756,-3.371429,-0.230000
4.098588,-0.195390,0.372168,-7.643468,69.613733,0.567557,-3.544322,-0.250000
4.115656,-0.270655,0.319066,-8.424908,47.173290,0.589721,-3.613480,-0.280000
4.132622,-0.346408,0.264134,-9.108669,22.625360,0.610542,-3.590427,-0.310000
4.147419,-0.413001,0.214084,-9.694750,22.677960,0.627085,-3.694164,-0.330000
4.164388,-0.489690,0.155184,-10.231990,45.451523,0.644875,-3.728742,-0.340000
4.181371,-0.566489,0.094148,-10.769231,23.146894,0.660637,-3.728742,-0.350000
4.198325,-0.642878,0.027924,-11.404151,23.194068,0.670802,-3.682637,-0.350000
4.213173,-0.709314,-0.033112,-12.039072,46.173788,0.676202,-3.636532,-0.360000
4.230169,-0.784540,-0.104219,-12.576313,22.515939,0.680321,-3.625006,-0.380000
4.247272,-0.859064,-0.176852,-13.064713,23.183569,0.682212,-3.521270,-0.380000
4.264516,-0.932688,-0.252537,-13.553114,45.583002,0.680151,-3.498217,-0.380000
4.280015,-0.997313,-0.319982,-13.797314,20.381058,0.677332,-3.394481,-0.390000
4.297455,-1.067991,-0.394141,-13.894994,-0.000000,0.673850,-3.302271,-0.390000
4.313004,-1.128943,-0.459144,-13.894994,-0.000000,0.669799,-3.279219,-0.390000
4.330475,-1.194841,-0.535439,-14.139194,22.471480,0.659402,-3.163956,-0.380000
4.345832,-1.250288,-0.603799,-14.334554,-0.000000,0.646488,-2.979536,-0.390000
4.363211,-1.309991,-0.678874,-14.334554,-0.000000,0.631117,-2.933431,-0.390000
4.380539,-1.366060,-0.749676,-14.139194,-0.000000,0.616385,-2.772063,-0.380000
4.396073,-1.413191,-0.814679,-14.090354,-0.000000,0.598512,-2.599170,-0.370000
4.413498,-1.462326,-0.887312,-14.041514,-0.000000,0.575013,-2.541538,-0.360000
4.428941,-1.502408,-0.946822,-13.699634,-21.184076,0.555586,-2.437802,-0.360000
4.446393,-1.543611,-1.007553,-13.113553,-45.572861,0.536057,-2.276435,-0.350000
4.461845,-1.576327,-1.062486,-12.771673,-21.153450,0.513841,-2.161172,-0.330000
4.479156,-1.608638,-1.125353,-12.576313,-22.605386,0.483285,-1.976752,-0.320000
4.496368,-1.636084,-1.183948,-12.234432,-22.476411,0.452136,-1.873016,-0.310000
4.511387,-1.656130,-1.228504,-11.599512,-45.512111,0.427626,-1.665543,-0.300000
4.528628,-1.674571,-1.276417,-10.964591,-22.880600,0.398154,-1.481123,-0.280000
4.545818,-1.688019,-1.324941,-10.476190,-22.378197,0.363078,-1.308230,-0.260000
4.560888,-1.695707,-1.364614,-10.036630,-43.729323,0.331092,-1.181441,-0.240000
4.578055,-1.699762,-1.404593,-9.401709,-45.817493,0.295169,-0.985495,-0.220000
4.593308,-1.699152,-1.434195,-8.620269,-43.650120,0.264956,-0.789548,-0.220000
4.610765,-1.693589,-1.465934,-7.838828,-45.537404,0.227654,-0.616654,-0.200000
4.627925,-1.683084,-1.493706,-7.155067,-44.688048,0.189379,-0.466813,-0.180000
4.643675,-1.669085,-1.513848,-6.373626,-43.561938,0.155237,-0.374603,-0.150000
4.659389,-1.651011,-1.526970,-5.396825,-64.682669,0.124040,-0.190183,-0.140000
4.677570,-1.625066,-1.537957,-4.371184,-41.113901,0.087109,-0.097973,-0.130000
4.693823,-1.597394,-1.544671,-3.540904,-41.476010,0.052723,0.040342,-0.110000
4.709872,-1.566030,-1.546502,-2.661783,-65.503095,0.019528,0.167131,-0.080000
4.725918,-1.530771,-1.544671,-1.831502,-41.806125,-0.013900,0.316972,-0.070000
4.742956,-1.489206,-1.538872,-1.001221,-46.168585,-0.049666,0.489866,-0.080000
4.757999,-1.449114,-1.530327,-0.219780,-69.914680,-0.081214,0.605128,-0.100000
4.774966,-1.400235,-1.515373,0.659341,-45.879062,-0.115138,0.743443,-0.100000
4.791908,-1.347755,-1.496147,1.587302,-46.189405,-0.148393,0.893284,-0.090000
4.808992,-1.291337,-1.472343,2.466422,-67.793716,-0.181006,1.008547,-0.090000
4.824091,-1.238735,-1.448234,3.199023,-40.572393,-0.209499,1.089231,-0.100000
4.841069,-1.176735,-1.415274,4.126984,-46.090677,-0.238539,1.158388,-0.110000
4.858361,-1.110742,-1.374990,5.201465,-67.134590,-0.264248,1.227546,-0.120000
4.873582,-1.050498,-1.333791,6.227106,-65.945921,-0.283293,1.146862,-0.110000
4.890748,-0.980388,-1.281605,7.350427,-69.637398,-0.301218,1.146862,-0.100000
4.908387,-0.906256,-1.223621,8.424908,-45.370988,-0.317365,1.135336,-0.080000
4.925810,-0.831267,-1.161975,9.401709,-45.715245,-0.330707,1.031600,-0.070000
4.940914,-0.765094,-1.106126,10.183150,-45.155960,-0.341032,0.973968,-0.070000
4.957968,-0.689354,-1.038376,11.062271,-68.611146,-0.349023,0.824127,-0.090000
4.974912,-0.613327,-0.962997,12.136752,-67.399653,-0.349669,0.651233,-0.110000
4.989846,-0.545923,-0.891585,13.113553,-44.795542,-0.345662,0.489866,-0.110000
5.007016,-0.468264,-0.808270,13.992674,-45.623611,-0.340006,0.305446,-0.110000
5.025040,-0.386888,-0.718853,14.822955,-64.655448,-0.331964,0.028816,-0.150000
5.040763,-0.316318,-0.634623,15.604396,-65.148949,-0.318305,-0.247814,-0.190000
5.058526,-0.237380,-0.537881,16.385836,-41.810391,-0.300501,-0.512918,-0.220000
5.074836,-0.165922,-0.448463,16.923077,-21.221383,-0.282540,-0.778022,-0.240000
5.091031,-0.096222,-0.360876,17.216117,-21.120735,-0.264654,-0.985495,-0.260000
5.108376,-0.023244,-0.267796,17.362637,-0.000000,-0.244552,-1.227546,-0.270000
5.125512,0.046851,-0.175326,17.557998,-22.602892,-0.222177,-1.423492,-0.320000
5.140627,0.106798,-0.092927,17.704518,-22.196339,-0.199725,-1.746227,-0.370000
5.157694,0.172108,-0.002594,17.704518,-0.000000,-0.174702,-1.942173,-0.380000
5.175074,0.235754,0.083772,17.313797,43.869796,-0.151982,-2.022857,-0.390000
5.190046,0.288060,0.154269,16.874237,46.330434,-0.133791,-2.045910,-0.410000
5.207237,0.345014,0.231174,16.336996,22.680471,-0.113840,-2.161172,-0.430000
5.224305,0.398052,0.302892,15.604396,45.904765,-0.095161,-2.103541,-0.450000
5.239837,0.443091,0.363317,14.969475,22.292960,-0.079774,-2.172698,-0.470000
5.257203,0.489614,0.428321,14.139194,45.966568,-0.061293,-2.161172,-0.460000
5.272317,0.526660,0.478981,13.357753,66.959036,-0.047679,-2.092015,-0.440000
5.289335,0.564378,0.530251,12.380952,70.170134,-0.034127,-2.126593,-0.440000
5.306447,0.597888,0.576028,11.355311,68.147043,-0.021860,-1.999805,-0.450000
5.324264,0.627924,0.617533,10.280830,65.412457,-0.010392,-1.815385,-0.440000
5.339424,0.649481,0.647440,9.304029,66.552960,-0.002040,-1.700122,-0.410000
5.356563,0.669327,0.675212,8.131868,69.898776,0.005885,-1.619438,-0.390000
5.373692,0.684286,0.698405,7.106227,45.517167,0.014119,-1.527228,-0.370000
5.391305,0.694519,0.718547,6.080586,65.636018,0.024028,-1.365861,-0.340000
5.406302,0.699084,0.731060,5.201465,66.813442,0.031976,-1.227546,-0.320000
5.423431,0.699610,0.740520,4.224664,68.199982,0.040911,-1.123810,-0.290000
5.440844,0.695019,0.745098,3.247863,44.162986,0.050079,-1.008547,-0.260000
5.455944,0.686869,0.745098,2.368742,45.532343,0.058229,-0.962442,-0.240000
5.473096,0.672948,0.745098,1.684982,23.682082,0.072150,-0.950916,-0.220000
5.488316,0.656489,0.743877,1.147741,42.927496,0.087388,-0.927863,-0.200000
5.505608,0.633174,0.740215,0.610501,21.199422,0.107041,-1.008547,-0.160000
5.523152,0.604599,0.734112,0.073260,22.503572,0.129512,-1.100757,-0.130000
5.538268,0.576100,0.726482,-0.415140,45.822618,0.150382,-1.169915,-0.100000
5.555484,0.539392,0.715496,-0.903541,23.233528,0.176104,-1.273651,-0.080000
5.572576,0.498619,0.701152,-1.440781,22.842330,0.202533,-1.458071,-0.080000
5.587482,0.459670,0.688945,-1.782662,-0.000000,0.229275,-1.642491,-0.070000
5.604581,0.411269,0.674296,-2.124542,23.217728,0.263027,-1.873016,-0.070000
5.622096,0.357767,0.656596,-2.515263,22.266306,0.298828,-2.057436,-0.070000
5.639216,0.301855,0.634928,-3.003663,22.515939,0.333073,-2.276435,-0.080000
5.654372,0.249568,0.612955,-3.492063,21.934898,0.363387,-2.518486,-0.100000
5.671481,0.187605,0.585183,-4.078144,45.275724,0.397578,-2.668327,-0.130000
5.688597,0.122761,0.554360,-4.615385,23.144279,0.431600,-2.864274,-0.150000
5.703622,0.063691,0.524147,-5.201465,44.610194,0.460457,-3.048694,-0.180000
5.720833,-0.006181,0.486610,-5.787546,22.288109,0.492791,-3.187009,-0.200000
5.736231,-0.070466,0.450599,-6.373626,44.913399,0.521065,-3.302271,-0.220000
5.753644,-0.144894,0.404822,-7.057387,44.153467,0.549715,-3.440586,-0.230000
5.771177,-0.221379,0.353246,-7.887668,44.957755,0.574625,-3.498217,-0.260000
5.786164,-0.287735,0.305943,-8.571429,45.643942,0.593679,-3.613480,-0.290000
5.803584,-0.365698,0.249180,-9.255189,45.320799,0.614878,-3.648059,-0.310000
5.819150,-0.435867,0.196994,-9.792430,23.040154,0.632861,-3.797900,-0.330000
5.836594,-0.514752,0.136263,-10.329670,22.079113,0.651015,-3.786374,-0.340000
5.852537,-0.586800,0.076753,-10.915751,42.491187,0.663553,-3.786374,-0.340000
5.868330,-0.657863,0.014496,-11.550672,43.668730,0.672359,-3.751795,-0.350000
5.885851,-0.736034,-0.058137,-12.234432,45.421289,0.677897,-3.671111,-0.370000
5.903575,-0.814065,-0.132296,-12.771673,45.705045,0.681769,-3.613480,-0.380000
5.920993,-0.889385,-0.206760,-13.162393,22.091018,0.682625,-3.509744,-0.380000
5.936365,-0.954471,-0.274205,-13.601954,22.635360,0.680266,-3.452112,-0.380000
5.954368,-1.028747,-0.351720,-13.846154,-0.000000,0.677026,-3.440586,-0.390000
5.969509,-1.089338,-0.415808,-13.894994,-0.000000,0.673530,-3.336850,-0.390000
5.986471,-1.154932,-0.487221,-13.943834,22.637862,0.667712,-3.221587,-0.380000
6.004033,-1.220021,-0.565042,-14.236874,21.334098,0.654979,-3.083272,-0.380000
6.019935,-1.276241,-0.635538,-14.383394,22.213187,0.640703,-2.956484,-0.390000
6.037309,-1.334476,-0.708782,-14.236874,-22.834691,0.625694,-2.875800,-0.390000
6.054624,-1.388947,-0.780194,-14.139194,-0.000000,0.608754,-2.679853,-0.380000
6.069900,-1.433870,-0.844892,-14.139194,-0.000000,0.588978,-2.599170,-0.370000
6.088034,-1.483167,-0.917830,-13.894994,-21.283118,0.565337,-2.506960,-0.360000
6.103588,-1.521799,-0.974594,-13.455433,-22.339151,0.547205,-2.391697,-0.360000
6.118901,-1.556399,-1.028000,-12.967033,-22.740898,0.528399,-2.241856,-0.340000
6.136445,-1.591711,-1.091173,-12.673993,-22.563059,0.500539,-2.103541,-0.330000
6.151893,-1.618856,-1.146715,-12.527473,-20.843510,0.472140,-1.953700,-0.320000
6.169813,-1.645586,-1.204700,-11.990232,-42.654870,0.440886,-1.757753,-0.310000
6.185672,-1.664885,-1.249561,-11.306471,-43.543418,0.415324,-1.596386,-0.300000
6.201567,-1.680053,-1.293812,-10.769231,-21.965474,0.386240,-1.400440,-0.280000
6.217333,-1.690912,-1.337453,-10.378510,-21.416624,0.353459,-1.250598,-0.250000
6.234926,-1.698063,-1.383230,-9.841270,-43.071912,0.314833,-1.077705,-0.230000
6.250293,-1.699999,-1.416190,-9.108669,-65.121335,0.283809,-0.939389,-0.220000
6.267643,-1.697347,-1.447929,-8.229548,-66.258764,0.249418,-0.754969,-0.210000
6.284946,-1.689601,-1.478447,-7.545788,-47.054097,0.211155,-0.605128,-0.190000
6.300516,-1.678305,-1.502251,-6.910867,-43.978105,0.176054,-0.420708,-0.170000
6.318042,-1.660737,-1.521477,-5.934066,-65.315128,0.139260,-0.259341,-0.150000
6.333336,-1.641264,-1.532158,-5.006105,-45.771425,0.109106,-0.144078,-0.140000
6.350912,-1.614206,-1.541314,-4.029304,-44.001721,0.072892,-0.040342,-0.120000
6.366238,-1.586618,-1.545892,-3.199023,-68.147043,0.040726,0.121026,-0.100000
6.383718,-1.550728,-1.546807,-2.319902,-46.325195,0.003921,0.270867,-0.070000
6.401294,-1.510044,-1.543145,-1.440781,-42.202310,-0.033101,0.432234,-0.070000
6.416315,-1.471755,-1.536736,-0.708181,-47.722775,-0.064981,0.547497,-0.080000
6.433656,-1.423686,-1.523919,0.219780,-45.843127,-0.100233,0.685812,-0.100000
6.448943,-1.378027,-1.507744,1.098901,-67.024761,-0.129717,0.812601,-0.090000
6.466160,-1.323127,-1.485771,2.026862,-44.610194,-0.162644,0.916337,-0.080000
6.483300,-1.265027,-1.459831,2.905983,-45.061595,-0.194804,1.020073,-0.090000
