Time,TargetPosition,CurrentPosition,Velocity,Acceleration,Error,Current,Torque
4.124696,-0.001031,-0.562905,-0.02442,-0.21224081549065332,-0.561874,-0.005763,0.0
4.125946,-0.002063,-0.562905,-0.02442,-34.77062636847042,-0.560843,0.017289,0.0
4.127093,-0.003094,-0.562905,-0.02442,-73.42109011039885,-0.559811,12.269695,0.0
4.130474,-0.006191,-0.558938,0.26862,-118.95586454309911,-0.552747,23.6,0.0
4.132873,-0.008258,-0.55375,0.610501,-172.03838918742125,-0.545492,23.6,0.0
4.136402,-0.011359,-0.541238,1.343101,-230.93722360629144,-0.529878,22.77011,0.0
4.139763,-0.014463,-0.524147,2.319902,-291.7301289590693,-0.509684,21.836484,0.0
4.141948,-0.016534,-0.511635,3.052503,-348.7652002865893,-0.495101,20.983541,0.0
4.145221,-0.019642,-0.489052,4.322344,-395.2505855887705,-0.46941,19.669548,0.4
4.148471,-0.022752,-0.464332,5.641026,-423.9986327493047,-0.44158,18.516923,0.6
4.150631,-0.024827,-0.446021,6.617827,-428.4142805879723,-0.421194,17.468034,0.7
4.153913,-0.027942,-0.419471,7.887668,-403.7293655585065,-0.391529,15.658413,0.9
4.156128,-0.03002,-0.40116,8.717949,-348.30412012187395,-0.37114,15.197363,1.3
4.159424,-0.033139,-0.377356,9.74359,-264.65539827083444,-0.344217,13.595214,1.7
4.161685,-0.035219,-0.362707,10.23199,-159.81474718986667,-0.327488,12.972796,2.8
4.165029,-0.038342,-0.346838,10.573871,-44.709695780205365,-0.308496,12.119853,3.4
4.16724,-0.040425,-0.340429,10.573871,67.49701049795225,-0.300003,12.154432,4.1
4.170493,-0.043552,-0.337072,10.08547,163.83088486457706,-0.293519,12.027643,4.8
4.172671,-0.045639,-0.338903,9.54823,234.08828101218137,-0.293264,11.681856,5.5
4.176093,-0.04877,-0.344396,8.571429,272.8339461140198,-0.295626,10.264127,6.6
4.178308,-0.050859,-0.348058,7.985348,280.2151254785117,-0.2972,10.148864,7.0
4.181639,-0.053994,-0.352331,7.155067,261.3848864408113,-0.298337,10.344811,7.4
4.18387,-0.056086,-0.355077,6.666667,224.79149731713355,-0.298992,10.437021,7.7
4.187155,-0.059225,-0.357519,6.080586,179.92477029559706,-0.298294,10.575336,7.9
4.189388,-0.06132,-0.358129,5.787546,135.1941729132755,-0.29681,10.598388,8.3
4.192694,-0.064463,-0.357824,5.445665,96.45951706262164,-0.293361,10.725177,8.5
4.19598,-0.067609,-0.355993,5.201465,66.45129373478068,-0.288384,10.944176,8.6
4.198197,-0.069708,-0.354162,5.103785,45.03136438950646,-0.284454,10.886545,8.7
4.201536,-0.072859,-0.35111,4.957265,30.045173554445316,-0.278252,10.736703,8.8
4.203711,-0.07496,-0.348974,4.908425,18.438020581642313,-0.274014,10.425495,8.9
4.206971,-0.078115,-0.344701,4.859585,7.333800182882379,-0.266587,10.160391,9.0
4.210256,-0.081271,-0.339513,4.859585,-5.143722820109486,-0.258242,9.803077,9.1
4.212431,-0.083377,-0.335546,4.908425,-19.437734806129484,-0.252169,9.572552,9.1
4.215715,-0.086538,-0.328832,5.054945,-34.564417997052786,-0.242294,9.007766,9.2
4.217914,-0.088647,-0.323949,5.152625,-48.52757640753541,-0.235302,8.719609,9.3
4.22124,-0.091812,-0.316014,5.299145,-59.0172893495796,-0.224202,8.200928,9.3
4.224524,-0.09498,-0.307469,5.543346,-64.18070251239345,-0.21249,7.613089,9.4
4.226745,-0.097093,-0.301671,5.689866,-63.21436238223487,-0.204578,7.232723,9.5
4.230016,-0.100264,-0.292821,5.885226,-56.57544883369871,-0.192556,6.760147,9.6
4.232209,-0.10238,-0.287327,5.982906,-45.74816113588722,-0.184947,6.322149,9.8
4.235469,-0.105556,-0.278782,6.129426,-32.68323186742281,-0.173226,5.82652,9.9
4.237651,-0.107675,-0.273594,6.227106,-19.16437966802449,-0.16592,5.480733,10.1
4.241011,-0.110855,-0.26566,6.373626,-6.368340421860507,-0.154805,4.985104,10.2
4.243208,-0.112976,-0.260777,6.373626,5.23187995432275,-0.147801,4.673895,10.3
4.246472,-0.11616,-0.254368,6.373626,15.64489653842475,-0.138208,4.189792,10.6
4.249738,-0.119346,-0.248264,6.373626,24.97812985143894,-0.128918,3.682637,10.7
4.252341,-0.121472,-0.243992,6.324786,33.09287317519552,-0.122519,3.359902,10.8
4.254868,-0.123599,-0.240024,6.275946,39.45181860689385,-0.116425,3.117851,10.8
4.258565,-0.126792,-0.234531,6.178266,43.222801218109815,-0.107739,2.656801,10.9
4.261057,-0.128923,-0.230564,6.129426,43.59978939822659,-0.101641,2.437802,11.0
4.264532,-0.13212,-0.225376,6.031746,40.21542524655517,-0.093256,2.04591,11.0
4.266717,-0.134253,-0.222324,5.982906,33.473442544381925,-0.088071,1.780806,11.0
4.27002,-0.137455,-0.217746,5.885226,24.642765371756617,-0.080291,1.435018,11.1
4.273343,-0.140659,-0.213169,5.836386,15.63343875955518,-0.072509,1.112283,11.1
4.275521,-0.142797,-0.209812,5.787546,8.499278337166464,-0.067015,0.962442,11.0
4.278858,-0.146005,-0.205234,5.738706,4.835023191897419,-0.059229,0.628181,11.0
4.2822,-0.149216,-0.200656,5.641026,5.295798423113643,-0.05144,0.351551,11.0
4.284385,-0.151358,-0.19791,5.592186,9.427619344244127,-0.046552,0.178657,10.9
4.287664,-0.154573,-0.193637,5.494505,15.874732855456609,-0.039064,-0.097973,10.8
4.29094,-0.15779,-0.189059,5.445665,22.88058259675224,-0.031269,-0.420708,10.7
4.293145,-0.159936,-0.186618,5.347985,28.88999760190827,-0.026682,-0.651233,10.5
4.296429,-0.163158,-0.18265,5.250305,33.03231794631239,-0.019493,-0.962442,9.9
4.299702,-0.166382,-0.179294,5.152625,35.32305940465393,-0.012912,-1.204493,9.5
4.301898,-0.168532,-0.177157,5.103785,36.53861217340433,-0.008625,-1.435018,9.0
4.305184,-0.17176,-0.174105,4.957265,37.846808105573984,-0.002345,-1.550281,8.4
4.307373,-0.173914,-0.17258,4.810745,40.360516060145606,0.001334,-1.757753,7.0
4.310647,-0.177146,-0.170443,4.664225,44.78434448057056,0.006703,-1.907595,6.3
4.31392,-0.180381,-0.168917,4.468864,51.25385585278171,0.011463,-2.068962,5.6
4.316116,-0.182538,-0.168307,4.322344,59.37055166197382,0.014231,-2.195751,5.0
4.319413,-0.185777,-0.167086,4.126984,68.3653079506589,0.018691,-2.299487,4.4
4.321618,-0.187938,-0.166781,3.931624,77.3005876038477,0.021157,-2.345592,3.6
4.324906,-0.191181,-0.166781,3.687424,85.24006288332647,0.024399,-2.403223,3.2
4.32822,-0.194426,-0.167086,3.443223,91.35204194726599,0.02734,-2.449328,2.9
4.33042,-0.196591,-0.167697,3.247863,94.95132732215457,0.028894,-2.483907,2.6
4.333685,-0.19984,-0.168612,3.003663,95.51087575623039,0.031228,-2.541538,2.4
4.335893,-0.202008,-0.168917,2.808303,92.68172866457581,0.033091,-2.564591,2.0
4.339203,-0.205262,-0.170138,2.564103,86.3440847972724,0.035123,-2.633748,1.9
4.341405,-0.207432,-0.170748,2.417582,76.6831612228714,0.036684,-2.668327,1.7
4.344658,-0.21069,-0.171664,2.222222,64.25990886865644,0.039026,-2.702906,1.6
4.347905,-0.21395,-0.172274,2.026862,50.0418391603531,0.041675,-2.749011,1.5
4.350125,-0.216125,-0.17258,1.929182,35.367626254299374,0.043545,-2.78359,1.2
4.353432,-0.219389,-0.172885,1.782662,21.827231650087498,0.046504,-2.8758,1.1
4.356677,-0.222655,-0.172885,1.684982,11.047974539274955,0.049771,-2.979536,0.9
4.358814,-0.224835,-0.17258,1.636142,4.402130606552389,0.052255,-3.002589,0.8
4.362068,-0.228105,-0.172274,1.538462,2.6966680304753656,0.055831,-3.071746,0.6
4.364288,-0.230287,-0.172274,1.489621,5.944014560519432,0.058013,-3.129377,0.2
4.367612,-0.233562,-0.172274,1.391941,13.30814236090958,0.061288,-3.221587,0.0
4.369862,-0.235747,-0.172274,1.294261,23.26242641610683,0.063472,-3.313797,0.0
4.373129,-0.239026,-0.172274,1.196581,33.91244026601493,0.066751,-3.440586,-0.4
4.375306,-0.241213,-0.172274,1.147741,43.37583368366804,0.068939,-3.544322,-0.7
4.378569,-0.244496,-0.17258,1.050061,50.10808442135891,0.071917,-3.682637,-1.2
4.381827,-0.247782,-0.172274,1.001221,53.11409276093365,0.075507,-3.809426,-1.5
4.384,-0.249974,-0.17258,0.952381,52.05015255592436,0.077394,-3.867057,-1.9
4.387261,-0.253263,-0.172274,0.903541,47.25135624599301,0.080989,-3.993846,-2.2
4.389431,-0.255458,-0.172274,0.854701,39.69954760816123,0.083183,-4.07453,-2.5
4.392691,-0.258751,-0.172274,0.805861,30.902662199539563,0.086477,-4.178266,-3.1
4.395982,-0.262047,-0.172274,0.757021,22.636351557764787,0.089773,-4.328107,-3.4
4.398148,-0.264246,-0.172274,0.757021,16.53888278725751,0.091972,-4.431844,-3.7
4.401483,-0.267547,-0.172274,0.708181,13.642843429451586,0.095272,-4.547106,-4.0
4.403662,-0.269748,-0.172274,0.659341,14.015888097233189,0.097474,-4.650842,-4.2
4.40695,-0.273053,-0.172274,0.610501,16.694625531915744,0.100778,-4.789158,-4.8
4.410226,-0.276359,-0.172274,0.561661,19.99611198108585,0.104085,-4.90442,-5.0
4.412412,-0.278565,-0.172274,0.512821,22.120053688795817,0.106291,-4.985104,-5.3
4.415676,-0.281876,-0.172274,0.512821,21.807526789044495,0.109602,-5.134945,-5.5
4.417851,-0.284085,-0.172274,0.46398,18.786392414434907,0.111811,-5.204103,-5.7
4.421121,-0.2874,-0.172274,0.46398,13.829202162367984,0.115126,-5.353944,-6.2
4.424401,-0.290717,-0.17258,0.41514,8.420439011873668,0.118138,-5.503785,-6.4
4.426576,-0.29293,-0.17258,0.41514,4.188976422110149,0.120351,-5.584469,-6.6
4.42984,-0.296252,-0.17258,0.3663,2.3407451023100734,0.123672,-5.711258,-6.7
4.432032,-0.298468,-0.17258,0.3663,3.3029936925784145,0.125888,-5.803468,-6.9
4.435303,-0.301793,-0.17258,0.31746,6.6875379977517655,0.129214,-5.930256,-7.2
4.438628,-0.305122,-0.17258,0.26862,11.547592153854538,0.132542,-6.057045,-7.3
4.440883,-0.307342,-0.172885,0.26862,16.7978683390834,0.134457,-6.137729,-7.4
4.444199,-0.310674,-0.17319,0.21978,21.627990757267398,0.137484,-6.264518,-7.5
4.446368,-0.312897,-0.173495,0.17094,25.766860083901637,0.139402,-6.310623,-7.6
4.44969,-0.316233,-0.174105,0.1221,29.52187826886966,0.142128,-6.368254,-7.7
4.451904,-0.318459,-0.174716,0.07326,33.590917321103866,0.143743,-6.37978,-7.7
4.455187,-0.3218,-0.175937,0.02442,38.71441523485204,0.145863,-6.448938,-7.8
4.45742,-0.324028,-0.177462,-0.07326,45.293036042704124,0.146566,-6.414359,-7.8
4.46068,-0.327373,-0.179904,-0.26862,53.12008525131734,0.147469,-6.391306,-7.8
4.463959,-0.33072,-0.182956,-0.41514,61.343776874256704,0.147764,-6.333675,-7.8
4.466163,-0.332953,-0.185092,-0.561661,68.69025222345157,0.147861,-6.299096,-7.8
4.469458,-0.336304,-0.18967,-0.805861,73.87964416790864,0.146634,-6.149255,-7.8
4.47163,-0.338539,-0.192721,-1.001221,76.08780992645941,0.145818,-6.091624,-7.8
4.474925,-0.341895,-0.197604,-1.245421,75.26943523557182,0.144291,-5.941783,-7.9
4.477162,-0.344133,-0.201572,-1.440781,72.18993587707159,0.142561,-5.895678,-7.9
4.47937,-0.346373,-0.205234,-1.587302,68.12616399833324,0.141139,-5.745836,-7.9
4.482691,-0.349734,-0.211032,-1.880342,64.35188058505659,0.138701,-5.630574,-7.9
4.485958,-0.353097,-0.216831,-2.124542,61.637660020134874,0.136267,-5.480733,-8.0
4.488142,-0.355341,-0.220493,-2.319902,59.990328713865765,0.134848,-5.342418,-8.0
4.490361,-0.357586,-0.224155,-2.466422,58.7320373310433,0.133431,-5.204103,-8.0
4.493625,-0.360956,-0.229343,-2.612943,56.85333353549477,0.131612,-5.065788,-8.1
4.496894,-0.364327,-0.233921,-2.759463,53.468182799826785,0.130407,-4.881368,-8.1
4.499091,-0.366577,-0.237278,-2.857143,48.19495022320236,0.129299,-4.869841,-8.1
4.502352,-0.369953,-0.24155,-2.954823,41.35239564298354,0.128402,-4.766105,-8.0
4.504532,-0.372205,-0.244297,-3.003663,33.93377078514123,0.127908,-4.604737,-8.0
4.507816,-0.375585,-0.248875,-3.101343,27.37662819729954,0.12671,-4.454896,-8.0
4.510034,-0.377839,-0.251926,-3.150183,23.1897645713486,0.125913,-4.431844,-7.9
4.51334,-0.381224,-0.256504,-3.247863,22.540582735104937,0.124719,-4.305055,-7.7
4.515537,-0.383481,-0.259861,-3.345543,25.92816684945789,0.12362,-4.143687,-7.6
4.518824,-0.386869,-0.265049,-3.443223,33.04228648480214,0.12182,-3.970794,-7.5
4.521002,-0.38913,-0.268406,-3.540904,42.838765018097206,0.120723,-3.89011,-7.3
4.524278,-0.392522,-0.274205,-3.687424,53.78738677103194,0.118317,-3.751795,-7.2
4.526473,-0.394785,-0.278172,-3.785104,64.20957989743938,0.116613,-3.636532,-7.0
4.528646,-0.397049,-0.28275,-3.931624,72.62184230740472,0.114299,-3.509744,-6.9
4.531909,-0.400447,-0.289158,-4.126984,78.01295460732744,0.111289,-3.267692,-6.5
4.535196,-0.403848,-0.296483,-4.322344,79.99587204612715,0.107365,-3.048694,-6.4
4.537378,-0.406116,-0.301061,-4.420024,78.7994520271112,0.105056,-2.956484,-6.2
4.540657,-0.409521,-0.30869,-4.664225,75.10862897342945,0.100831,-2.668327,-6.0
4.542831,-0.411792,-0.314183,-4.810745,69.80889473777322,0.097609,-2.483907,-5.8
4.546111,-0.415201,-0.321508,-4.957265,63.71876877097415,0.093693,-2.276435,-5.4
4.54942,-0.418612,-0.329442,-5.152625,57.39469648118011,0.08917,-1.999805,-5.2
4.551827,-0.420888,-0.334936,-5.299145,51.06968846284804,0.085952,-1.838437,-4.9
4.55431,-0.423164,-0.341039,-5.445665,44.739393928035966,0.082125,-1.654017,-4.7
4.556832,-0.425442,-0.346227,-5.494505,38.34412465055565,0.079215,-1.458071,-4.5
4.560543,-0.428862,-0.354772,-5.641026,31.945520752354312,0.07409,-1.12381,-4.1
4.563084,-0.431143,-0.360266,-5.738706,25.801916259299812,0.070878,-0.985495,-4.0
4.565545,-0.433426,-0.366064,-5.836386,20.310196992077003,0.067362,-0.812601,-3.8
4.568971,-0.436852,-0.373083,-5.885226,15.860198000865504,0.063768,-0.547497,-3.6
4.571266,-0.439137,-0.377966,-5.934066,12.688068387287727,0.061171,-0.409182,-3.4
4.574604,-0.442567,-0.384985,-6.031746,10.798854833149026,0.057582,-0.247814,-3.1
4.576788,-0.444855,-0.389258,-6.031746,9.977600555225699,0.055597,-0.144078,-3.0
4.580053,-0.448289,-0.395361,-6.080586,9.861222950056202,0.052928,-0.086447,-2.9
4.582226,-0.45058,-0.399939,-6.080586,10.026181530174659,0.050641,0.017289,-2.8
4.585518,-0.454018,-0.406043,-6.129426,10.057416424637836,0.047976,0.201709,-2.7
4.587723,-0.456312,-0.410315,-6.129426,9.584252471504822,0.045997,0.328498,-2.5
4.591026,-0.459755,-0.416114,-6.129426,8.288637886963178,0.043641,0.420708,-2.4
4.594286,-0.463199,-0.421912,-6.080586,5.909524428626531,0.041287,0.535971,-2.3
4.596488,-0.465497,-0.425269,-6.080586,2.2758219831772526,0.040228,0.593602,-2.3
4.599751,-0.468946,-0.430762,-6.031746,-2.616926055783757,0.038184,0.674286,-2.2
4.601924,-0.471247,-0.434424,-6.031746,-8.51363586117036,0.036823,0.720391,-2.2
4.605177,-0.4747,-0.439307,-5.934066,-14.857358984435304,0.035393,0.789548,-2.1
4.607348,-0.477004,-0.442359,-5.885226,-20.86455674380354,0.034644,0.835653,-2.0
4.610624,-0.480461,-0.446937,-5.836386,-25.734245968154248,0.033524,0.893284,-2.0
4.612797,-0.482767,-0.449683,-5.738706,-28.92931833454998,0.033083,0.812601,-1.9
4.616079,-0.486228,-0.453651,-5.641026,-30.407658449574996,0.032577,0.812601,-1.8
4.618248,-0.488537,-0.456397,-5.592186,-30.676898560282126,0.03214,0.835653,-1.7
4.621565,-0.492002,-0.460365,-5.494505,-30.613662987936358,0.031638,0.835653,-1.6
4.624925,-0.49547,-0.463722,-5.347985,-31.102227253408802,0.031748,0.766496,-1.4
4.62713,-0.497783,-0.466163,-5.299145,-32.65004777961608,0.03162,0.789548,-1.3
4.629355,-0.500098,-0.468299,-5.201465,-35.1647012904401,0.031798,0.743443,-1.2
4.63262,-0.503571,-0.471656,-5.054945,-38.00397310587884,0.031915,0.743443,-1.1
4.635895,-0.507048,-0.474708,-4.957265,-40.27492667369577,0.032339,0.639707,-0.8
4.638113,-0.509366,-0.476539,-4.859585,-41.23400732882152,0.032827,0.616654,-0.7
4.641432,-0.512847,-0.479591,-4.761905,-40.594176523543226,0.033255,0.524444,-0.6
4.643625,-0.515168,-0.481727,-4.664225,-38.5963337849176,0.033441,0.478339,-0.4
4.64689,-0.518652,-0.484779,-4.566545,-35.82162571988656,0.033873,0.409182,-0.3
4.649071,-0.520977,-0.48661,-4.517705,-32.85202631610903,0.034366,0.409182,0.0
4.65238,-0.524465,-0.489357,-4.420024,-29.967085706891677,0.035108,0.316972,0.0
4.654574,-0.526792,-0.491188,-4.322344,-27.047631757644773,0.035604,0.282393,0.0
4.657847,-0.530285,-0.493935,-4.224664,-23.738168544411483,0.03635,0.224762,0.0
4.66003,-0.532614,-0.496071,-4.175824,-19.760791140250994,0.036544,0.213236,0.0
4.66334,-0.536111,-0.498817,-4.126984,-15.178046186971203,0.037294,0.167131,0.0
4.665516,-0.538444,-0.500954,-4.078144,-10.43831807104774,0.03749,0.144078,0.0
4.668828,-0.541944,-0.504005,-4.029304,-6.177854434467845,0.037939,0.121026,0.5
4.671034,-0.54428,-0.506142,-3.980464,-2.8988789739027956,0.038138,0.121026,0.6
4.67435,-0.547785,-0.510109,-3.980464,-0.7035173009430478,0.037676,0.063394,0.7
4.676563,-0.550123,-0.512551,-3.980464,0.7817960184559634,0.037572,0.051868,0.8
4.679853,-0.553632,-0.516823,-3.980464,2.2636376983604998,0.036809,0.086447,0.9
4.682093,-0.555972,-0.51957,-3.980464,4.498227270533494,0.036403,0.086447,1.0
4.6854,-0.559486,-0.524147,-4.029304,8.001777210120304,0.035338,0.178657,1.3
4.687625,-0.561829,-0.527504,-4.078144,12.878979171257741,0.034325,0.282393,1.5
4.690922,-0.565347,-0.532692,-4.175824,18.82751036246712,0.032654,0.363077,1.6
4.693146,-0.567693,-0.53666,-4.224664,25.288320117014788,0.031033,0.443761,1.7
4.696402,-0.571214,-0.542458,-4.322344,31.648847783121873,0.028756,0.559023,1.9
4.698578,-0.573563,-0.546426,-4.420024,37.40149414939121,0.027138,0.685812,2.0
4.701849,-0.577089,-0.552529,-4.517705,42.20566823902222,0.02456,0.824127,2.2
4.704023,-0.579441,-0.557107,-4.664225,45.86030280045121,0.022334,0.985495,2.5
4.707314,-0.58297,-0.563516,-4.761905,48.23108467923797,0.019455,1.112283,2.6
4.710594,-0.586502,-0.57023,-4.908425,49.18506040044206,0.016273,1.285177,2.7
4.712768,-0.588859,-0.575113,-5.006105,48.5721340355572,0.013746,1.388913,2.8
4.716023,-0.592395,-0.581521,-5.103785,46.264965427967425,0.010873,1.665543,3.1
4.718223,-0.594754,-0.586099,-5.201465,42.23358878469812,0.008655,1.757753,3.2
4.721476,-0.598294,-0.592813,-5.299145,36.604508236071574,0.005481,1.896068,3.3
4.723645,-0.600655,-0.597086,-5.347985,29.65560933493041,0.00357,2.057436,3.3
4.726941,-0.6042,-0.603494,-5.396825,21.736109243036616,0.000706,2.068962,3.4
4.730221,-0.607747,-0.609598,-5.445665,13.157786663438488,-0.001851,2.264908,3.6
4.732394,-0.610113,-0.61326,-5.494505,4.1393386980791425,-0.003147,2.287961,3.7
4.7357,-0.613664,-0.619364,-5.494505,-5.137328041978046,-0.0057,2.403223,3.7
4.737871,-0.616032,-0.622721,-5.494505,-14.379172774534352,-0.006688,2.495433,3.8
4.741125,-0.619587,-0.627604,-5.494505,-23.045642714761886,-0.008016,2.553065,3.9
4.74438,-0.623145,-0.632486,-5.445665,-30.347267000585543,-0.009342,2.59917,4.1
4.746556,-0.625518,-0.635233,-5.396825,-35.43418529047047,-0.009715,2.702906,4.2
4.749949,-0.629079,-0.639811,-5.347985,-37.71178461319251,-0.010731,2.702906,4.2
4.752156,-0.631455,-0.642557,-5.299145,-37.13105772792191,-0.011102,2.633748,4.3
4.755451,-0.635021,-0.646525,-5.201465,-34.29880406398025,-0.011504,2.725958,4.4
4.757622,-0.637399,-0.648966,-5.152625,-30.338219907340278,-0.011567,2.633748,4.6
4.760913,-0.640969,-0.652323,-5.054945,-26.55201727980628,-0.011354,2.587643,4.8
4.764211,-0.644542,-0.65568,-4.957265,-24.030742840437146,-0.011138,2.622222,4.9
4.766438,-0.646925,-0.657816,-4.859585,-23.364889745428318,-0.010892,2.483907,5.0
4.769732,-0.650501,-0.660563,-4.761905,-24.56053757138538,-0.010062,2.553065,5.1
4.77194,-0.652887,-0.662394,-4.664225,-27.16087187366965,-0.009507,2.403223,5.3
4.775199,-0.656467,-0.665446,-4.517705,-30.489002115836527,-0.008979,2.403223,5.4
4.778579,-0.66005,-0.668193,-4.420024,-33.890467551717705,-0.008142,2.218803,5.4
4.78083,-0.662441,-0.670024,-4.371184,-36.88152272646591,-0.007583,2.264908,5.5
4.784159,-0.666028,-0.67216,-4.224664,-39.1813277728824,-0.006132,2.080488,5.6
4.786392,-0.668421,-0.673991,-4.126984,-40.6728792305217,-0.00557,2.057436,5.8
4.789706,-0.672012,-0.676127,-4.029304,-41.35479308043515,-0.004115,1.976752,5.9
4.791911,-0.674408,-0.677653,-3.931624,-41.313168405160326,-0.003245,1.849963,6.0
4.795226,-0.678004,-0.679789,-3.833944,-40.699867577593544,-0.001786,1.849963,6.1
4.797552,-0.680402,-0.681621,-3.785104,-39.69094758378634,-0.001219,1.734701,6.2
4.80092,-0.684002,-0.684062,-3.687424,-38.42398652904318,-6e-05,1.642491,6.4
4.803116,-0.686403,-0.685283,-3.638584,-36.95041383156512,0.00112,1.619438,6.5
4.806432,-0.690007,-0.687724,-3.540904,-35.25205484758984,0.002283,1.435018,6.5
4.80862,-0.692411,-0.68925,-3.492063,-33.3377393208697,0.003161,1.423492,6.6
4.81197,-0.696019,-0.691386,-3.394383,-31.369959839879407,0.004633,1.30823,6.6
4.814167,-0.698426,-0.692912,-3.345543,-29.723058886914387,0.005514,1.227546,6.7
4.817477,-0.702038,-0.695048,-3.296703,-28.892805329385236,0.00699,1.204493,6.7
4.820734,-0.705653,-0.697185,-3.199023,-29.264304092911942,0.008468,1.043126,6.7
