Time,TargetPosition,CurrentPosition,Velocity,Acceleration,Error,Current,Torque
13.984636,0.316818,-0.280003,5.006105,45.674473,-0.596821,23.600000,19.700000
13.986838,0.321400,-0.277562,4.957265,45.776539,-0.598962,23.600000,19.900000
13.990226,0.328207,-0.273289,4.908425,43.548047,-0.601496,23.600000,20.300000
13.992507,0.332620,-0.270848,4.859585,45.121148,-0.603468,23.600000,20.400000
13.995805,0.338762,-0.266880,4.810745,43.520292,-0.605642,23.600000,20.600000
13.998051,0.342782,-0.264439,4.761905,41.891618,-0.607221,23.600000,20.800000
14.001398,0.348526,-0.260472,3.931624,-0.000000,-0.608997,23.600000,20.900000
14.003597,0.352137,-0.257725,4.664225,-622.392178,-0.609862,23.600000,21.200000
14.006998,0.357470,-0.253758,4.615385,-0.000000,-0.611228,23.600000,21.400000
14.009263,0.360849,-0.251011,4.615385,-0.000000,-0.611860,23.600000,21.600000
14.012599,0.365577,-0.247044,4.566545,-0.000000,-0.612621,23.600000,21.800000
14.014835,0.368579,-0.244297,4.566545,-0.000000,-0.612876,23.600000,22.000000
14.017058,0.371429,-0.241550,4.566545,-45.725449,-0.612979,23.600000,22.300000
14.020335,0.375386,-0.237583,4.517705,-0.000000,-0.612969,23.600000,22.800000
14.023609,0.379048,-0.233310,4.517705,-0.000000,-0.612358,23.600000,23.000000
14.025790,0.381325,-0.230564,4.468864,-0.000000,-0.611889,23.600000,23.200000
14.029076,0.384512,-0.226596,4.468864,-0.000000,-0.611108,23.600000,23.500000
14.031280,0.386483,-0.224155,4.420024,-0.000000,-0.610638,23.600000,23.700000
14.033513,0.388344,-0.221408,4.420024,-0.000000,-0.609752,23.600000,23.900000
14.036861,0.390877,-0.218357,4.322344,44.688048,-0.609234,23.600000,24.200000
14.039116,0.392410,-0.216220,4.273504,44.727077,-0.608630,23.600000,24.400000
14.042521,0.394458,-0.213169,4.224664,-0.000000,-0.607626,23.600000,24.500000
14.044762,0.395631,-0.211032,4.126984,43.437238,-0.606663,23.600000,24.700000
14.048129,0.397131,-0.208286,4.029304,42.254540,-0.605417,23.600000,24.800000
14.050381,0.397960,-0.206455,3.980464,45.061595,-0.604414,23.600000,24.900000
14.052617,0.398643,-0.204623,3.150183,709.834938,-0.603267,23.600000,25.200000
14.055980,0.399409,-0.202182,3.833944,40.596515,-0.601591,23.600000,25.300000
14.059344,0.399862,-0.199435,3.785104,-0.000000,-0.599297,23.600000,25.300000
14.061585,0.399988,-0.197604,3.736264,-0.000000,-0.597593,23.600000,25.400000
14.064950,0.399917,-0.194553,3.687424,-0.000000,-0.594469,23.600000,25.500000
14.067185,0.399695,-0.192416,3.687424,-0.000000,-0.592111,23.600000,25.600000
14.069449,0.399329,-0.190585,3.638584,-0.000000,-0.589914,23.600000,25.800000
14.072808,0.398524,-0.187533,3.589744,-0.000000,-0.586057,23.600000,25.900000
14.075036,0.397817,-0.185397,3.589744,-0.000000,-0.583214,23.600000,26.000000
14.078371,0.396501,-0.182345,3.540904,-0.000000,-0.578847,23.600000,26.100000
14.080622,0.395440,-0.180514,3.492063,-0.000000,-0.575954,23.600000,26.200000
14.083974,0.393598,-0.177768,3.443223,42.882565,-0.571366,23.600000,26.400000
14.086212,0.392196,-0.176242,3.394383,43.308671,-0.568438,23.600000,26.500000
14.089564,0.389837,-0.173495,3.345543,-0.000000,-0.563332,23.600000,26.600000
14.091818,0.388077,-0.172274,3.296703,41.417309,-0.560351,23.600000,26.700000
14.095180,0.385192,-0.170443,3.199023,43.281220,-0.555635,23.600000,26.700000
14.097420,0.383098,-0.168917,2.368742,703.241157,-0.552016,23.600000,26.800000
14.100795,0.379684,-0.167391,3.052503,-0.000000,-0.547075,23.600000,26.900000
14.104181,0.375946,-0.165866,2.954823,43.818184,-0.541812,23.600000,26.900000
14.106448,0.373270,-0.164340,2.905983,43.492572,-0.537609,23.600000,26.900000
14.109839,0.369005,-0.162509,2.808303,-0.000000,-0.531514,23.450159,26.900000
14.112086,0.366009,-0.161288,2.759463,-0.000000,-0.527297,23.323370,26.900000
14.115483,0.361220,-0.159152,2.710623,-0.000000,-0.520372,23.023687,26.900000
14.117822,0.357743,-0.157931,2.661783,41.035659,-0.515674,22.862320,26.900000
14.121380,0.352174,-0.155795,2.612943,38.125817,-0.507969,22.585690,26.900000
14.123640,0.348462,-0.154879,2.564103,41.994672,-0.503341,22.378217,26.900000
14.125886,0.344638,-0.153658,2.515263,44.006447,-0.498297,22.205324,26.900000
14.129257,0.338651,-0.152743,2.417582,42.659311,-0.491393,21.974799,26.900000
14.131510,0.334482,-0.151827,2.368742,45.260719,-0.486309,21.801905,26.800000
14.134940,0.327881,-0.151217,2.271062,42.632677,-0.479098,21.410012,26.800000
14.137228,0.323307,-0.150607,2.173382,42.447164,-0.473913,21.237118,26.800000
14.140596,0.316329,-0.150301,2.075702,44.668559,-0.466631,20.937436,26.700000
14.142882,0.311427,-0.149996,1.978022,42.376916,-0.461423,20.718437,26.600000
14.146271,0.303913,-0.149691,1.880342,42.792984,-0.453604,20.395702,26.500000
14.148662,0.298437,-0.149691,1.782662,42.385684,-0.448128,20.165177,26.500000
14.152028,0.290485,-0.149386,1.684982,41.467614,-0.439871,19.819389,26.400000
14.154265,0.285042,-0.149081,1.636142,43.529539,-0.434123,19.588864,26.100000
14.157708,0.276421,-0.148470,1.538462,47.070315,-0.424891,19.220024,26.000000
14.159903,0.270773,-0.148165,1.538462,-0.000000,-0.418938,18.966447,25.900000
14.163213,0.262033,-0.147555,1.440781,44.668559,-0.409588,18.597607,25.800000
14.165396,0.256123,-0.146944,1.440781,-0.000000,-0.403067,18.355556,25.600000
14.168696,0.246969,-0.146334,1.391941,-0.000000,-0.393303,17.906032,25.300000
14.172030,0.237457,-0.145724,1.343101,-0.000000,-0.383181,17.514139,25.200000
14.174256,0.230957,-0.145418,1.294261,-0.000000,-0.376376,17.249035,25.100000
14.177564,0.221086,-0.145113,1.245421,-0.000000,-0.366200,16.811038,24.900000
14.179809,0.214243,-0.145113,1.147741,41.908759,-0.359356,16.522882,24.800000
14.182042,0.207319,-0.145113,1.098901,43.668730,-0.352433,16.223199,24.600000
14.185329,0.196921,-0.145418,1.050061,-0.000000,-0.342339,15.716044,24.300000
14.188620,0.186265,-0.145418,0.952381,44.349429,-0.331683,15.243468,24.100000
14.190842,0.178932,-0.145418,0.903541,43.217302,-0.324350,14.943785,23.900000
14.194172,0.167739,-0.145418,0.854701,-0.000000,-0.313157,14.505788,23.800000
14.196415,0.160060,-0.145418,0.805861,41.720980,-0.305479,14.183053,23.600000
14.199739,0.148483,-0.145724,0.757021,-0.000000,-0.294207,13.710476,23.300000
14.201971,0.140576,-0.145418,0.708181,41.636181,-0.285994,13.341636,23.100000
14.205386,0.128274,-0.145724,0.659341,-0.000000,-0.273997,12.822955,23.000000
14.207771,0.119536,-0.145724,0.610501,-0.000000,-0.265260,12.442589,22.800000
14.211145,0.106975,-0.146029,0.561661,-0.000000,-0.253004,11.912381,22.700000
14.213485,0.098128,-0.146029,0.561661,-0.000000,-0.244157,11.520488,22.500000
14.215737,0.089507,-0.146029,0.512821,44.263183,-0.235535,11.163175,22.200000
14.219007,0.076814,-0.146029,0.463980,45.051685,-0.222843,10.609915,22.000000
14.221202,0.068172,-0.146334,0.463980,-0.000000,-0.214506,10.194969,21.800000
14.224438,0.055263,-0.146334,0.415140,-0.000000,-0.201597,9.641709,21.700000
14.226618,0.046457,-0.146639,0.366300,43.603664,-0.193097,9.249817,21.500000
14.229931,0.032896,-0.146944,0.317460,44.387868,-0.179840,8.673504,21.300000
14.232140,0.023744,-0.146944,0.317460,-0.000000,-0.170689,8.258559,21.100000
14.235426,0.009963,-0.146944,0.268620,44.834759,-0.156907,7.659194,20.800000
14.237602,0.000733,-0.147250,0.268620,-0.000000,-0.147982,7.267302,20.700000
14.240877,-0.013322,-0.147555,0.219780,-0.000000,-0.134233,6.656410,20.500000
14.243088,-0.022915,-0.147860,0.170940,45.051685,-0.124945,6.252991,20.400000
14.245320,-0.032683,-0.148165,0.170940,-0.000000,-0.115483,5.849573,20.300000
14.248665,-0.047477,-0.148775,0.122100,-0.000000,-0.101298,5.227155,20.200000
14.250908,-0.057502,-0.149386,0.073260,-0.000000,-0.091883,4.823736,19.900000
14.254264,-0.072658,-0.149996,0.024420,-0.000000,-0.077338,4.201319,19.800000
14.256498,-0.082842,-0.150607,-0.024420,44.913399,-0.067765,3.809426,19.700000
14.259859,-0.098313,-0.151827,-0.122100,44.551982,-0.053514,3.221587,19.500000
14.262128,-0.108854,-0.152438,-0.122100,-0.000000,-0.043584,2.783590,19.400000
14.265483,-0.124584,-0.154269,-0.268620,44.291895,-0.029685,2.195751,19.000000
14.268822,-0.140397,-0.156405,-0.366300,43.189967,-0.016008,1.700122,18.900000
14.271054,-0.151055,-0.157931,-0.463980,40.920897,-0.006875,1.296703,18.700000
14.273286,-0.161784,-0.160067,-0.561661,43.921529,0.001716,0.950916,18.500000
14.276623,-0.177952,-0.163424,-0.757021,89.787426,0.014528,0.512918,18.300000
14.278855,-0.188848,-0.165866,-0.903541,83.989345,0.022983,0.247814,18.100000
14.282215,-0.205371,-0.170138,-1.098901,45.250721,0.035233,-0.074921,17.700000
14.284453,-0.216455,-0.173495,-1.294261,89.905645,0.042960,-0.455287,17.400000
14.287797,-0.233131,-0.178988,-1.538462,86.617341,0.054143,-1.020073,17.200000
14.290037,-0.244374,-0.183261,-1.733822,87.318846,0.061113,-1.331282,16.900000
14.293444,-0.261585,-0.189975,-2.075702,86.035284,0.071610,-1.700122,16.700000
14.295694,-0.273022,-0.194553,-2.271062,86.635658,0.078469,-1.907595,16.100000
14.299052,-0.290192,-0.201877,-2.612943,87.467981,0.088315,-2.241856,15.900000
14.301315,-0.301834,-0.207675,-2.857143,89.123347,0.094159,-2.391697,15.600000
14.304881,-0.320273,-0.216831,-3.247863,84.876740,0.103442,-2.737485,15.300000
14.307225,-0.332467,-0.223239,-3.540904,125.290527,0.109228,-2.829695,14.900000
14.309564,-0.344680,-0.229953,-3.833944,123.181006,0.114727,-2.968010,14.600000
14.311898,-0.356919,-0.236667,-4.078144,128.244999,0.120252,-3.094799,13.900000
14.315481,-0.375796,-0.247654,-4.517705,122.395944,0.128142,-3.475165,13.600000
14.317907,-0.388636,-0.255283,-4.810745,129.515287,0.133353,-3.613480,13.200000
14.321313,-0.406741,-0.266270,-5.201465,122.787220,0.140471,-3.820952,12.800000
14.323557,-0.418723,-0.272984,-5.396825,85.300859,0.145739,-4.051477,12.500000
14.326990,-0.437110,-0.283665,-5.738706,120.784205,0.153445,-4.224371,11.700000
14.329278,-0.449411,-0.290990,-5.934066,77.741940,0.158421,-4.374212,11.300000
14.332670,-0.467708,-0.300755,-6.178266,44.025363,0.166953,-4.627790,10.900000
14.334956,-0.480080,-0.308080,-6.373626,40.293079,0.172001,-4.835263,10.500000
14.338368,-0.498594,-0.317845,-6.617827,88.775737,0.180749,-5.019683,10.200000
14.340651,-0.511020,-0.324865,-6.764347,43.144484,0.186156,-5.215629,9.400000
14.344095,-0.529807,-0.335241,-7.008547,86.252637,0.194567,-5.526838,9.000000
14.346413,-0.542481,-0.342260,-7.155067,82.501012,0.200221,-5.688205,8.600000
14.349972,-0.561981,-0.353246,-7.350427,83.903343,0.208734,-5.964835,8.200000
14.352299,-0.574752,-0.360266,-7.496947,85.603850,0.214487,-6.149255,7.900000
14.354576,-0.587269,-0.367285,-7.594628,42.341879,0.219985,-6.425885,7.100000
14.357965,-0.605923,-0.377966,-7.789988,43.836938,0.227957,-6.702515,6.700000
14.360240,-0.618465,-0.385290,-7.936508,86.379933,0.233175,-6.921514,6.200000
14.363573,-0.636854,-0.395361,-8.083028,45.360942,0.241493,-7.267302,5.800000
14.365807,-0.649187,-0.402380,-8.131868,-0.000000,0.246807,-7.497827,5.400000
14.368072,-0.661700,-0.409094,-8.229548,-0.000000,0.252606,-7.751404,4.900000
14.371403,-0.680110,-0.419165,-8.376068,46.694783,0.260945,-8.074139,3.900000
14.374825,-0.699030,-0.428626,-8.424908,-0.000000,0.270404,-8.512137,3.500000
14.377109,-0.711658,-0.434730,-8.473748,-0.000000,0.276929,-8.777241,3.000000
14.379422,-0.724447,-0.441444,-8.473748,-0.000000,0.283004,-9.157607,2.400000
14.382865,-0.743479,-0.449989,-8.473748,-0.000000,0.293490,-9.584078,1.900000
14.385211,-0.756436,-0.455177,-8.424908,-42.055022,0.301260,-10.022076,0.800000
14.388673,-0.775540,-0.462196,-8.327228,-45.451523,0.313344,-10.632967,0.200000
14.391006,-0.788403,-0.466773,-8.229548,-40.182427,0.321630,-11.082491,-0.400000
14.394432,-0.807273,-0.472572,-8.083028,-42.245826,0.334701,-11.716435,-1.000000
14.396720,-0.819855,-0.475929,-7.936508,-43.400426,0.343926,-12.142906,-1.600000
14.398991,-0.832329,-0.478676,-7.741148,-85.300859,0.353654,-12.615482,-2.200000
14.402654,-0.852415,-0.482033,-7.448107,-76.910085,0.370383,-13.422320,-3.400000
14.405010,-0.865305,-0.484169,-7.203907,-118.205431,0.381136,-13.975580,-4.000000
14.408461,-0.884144,-0.486915,-6.910867,-85.585967,0.397228,-14.747839,-4.600000
14.410780,-0.896773,-0.488746,-6.715507,-85.212152,0.408026,-15.231941,-5.100000
14.414186,-0.915267,-0.491188,-6.471306,-87.337460,0.424079,-16.027253,-6.100000
14.416496,-0.927778,-0.493629,-6.324786,-41.678538,0.434148,-16.453724,-6.600000
14.419922,-0.946280,-0.497292,-6.129426,-42.132870,0.448988,-17.225983,-7.100000
14.422216,-0.958622,-0.500038,-6.031746,-43.180863,0.458584,-17.663980,-7.500000
14.425657,-0.977074,-0.505226,-5.982906,-0.000000,0.471848,-18.309451,-8.000000
14.427811,-0.988587,-0.508583,-5.934066,-0.000000,0.480004,-18.770501,-8.900000
14.431034,-1.005743,-0.513771,-5.885226,-49.552494,0.491971,-19.427497,-9.300000
14.434262,-1.022845,-0.519265,-5.885226,-0.000000,0.503580,-20.026862,-9.800000
14.436454,-1.034414,-0.523232,-5.885226,-0.000000,0.511183,-20.476386,-10.200000
14.439750,-1.051726,-0.529335,-5.885226,-47.211342,0.522391,-20.948962,-10.600000
14.441943,-1.063198,-0.533303,-5.934066,-0.000000,0.529895,-21.386960,-11.500000
14.445267,-1.080490,-0.539406,-5.934066,-0.000000,0.541084,-21.917167,-12.000000
14.447450,-1.091797,-0.542763,-5.885226,-45.930496,0.549033,-22.424322,-12.400000
14.450715,-1.108609,-0.547341,-5.836386,-45.715245,0.561268,-23.000635,-12.800000
14.454007,-1.125454,-0.551919,-5.738706,-41.408937,0.573535,-23.600000,-13.300000
14.456324,-1.137236,-0.554665,-5.738706,-40.190310,0.582571,-23.600000,-14.200000
14.459752,-1.154564,-0.558633,-5.592186,-44.349429,0.595931,-23.600000,-14.600000
14.462014,-1.165922,-0.561074,-4.713065,-759.954703,0.604848,-23.600000,-15.000000
14.465425,-1.182938,-0.564431,-5.396825,-0.000000,0.618507,-23.600000,-15.400000
14.467681,-1.194118,-0.566567,-5.299145,-42.500003,0.627550,-23.600000,-15.800000
14.469948,-1.205284,-0.568399,-5.152625,-42.271979,0.636885,-23.600000,-16.500000
14.473320,-1.221771,-0.571756,-5.054945,-45.756089,0.650015,19.980757,-16.900000
14.476694,-1.238118,-0.574807,-4.908425,-42.810870,0.663311,19.392918,-17.300000
14.478936,-1.248893,-0.577554,-4.859585,-44.913399,0.671339,19.035604,-17.600000
14.482272,-1.264801,-0.581216,-4.810745,-0.000000,0.683584,18.424713,-18.000000
14.484553,-1.275585,-0.584268,-4.810745,-0.000000,0.691318,18.228767,-18.800000
14.487951,-1.291515,-0.589456,-4.810745,-0.000000,0.702059,17.675507,-19.200000
14.490254,-1.302211,-0.592813,-4.859585,41.425685,0.709398,17.318193,-19.600000
14.492989,-1.314809,-0.597696,-4.908425,37.704769,0.717113,16.914774,-20.000000
14.495563,-1.326555,-0.602579,-4.957265,-0.000000,0.723976,16.465250,-20.400000
14.499442,-1.344063,-0.609903,-5.103785,37.683961,0.734160,16.188620,-21.300000
14.502012,-1.355532,-0.614481,-5.103785,-0.000000,0.741051,15.877411,-21.700000
14.504641,-1.367146,-0.619364,-5.201465,36.071494,0.747782,15.554676,-22.200000
14.507154,-1.378140,-0.623331,-5.201465,-0.000000,0.754809,15.174310,-22.700000
14.510553,-1.392837,-0.629129,-5.201465,-0.000000,0.763707,14.713260,-23.100000
14.512774,-1.402335,-0.632792,-5.250305,-0.000000,0.769543,14.275263,-24.000000
14.516087,-1.416334,-0.637980,-5.250305,-0.000000,0.778354,13.964054,-24.400000
14.518412,-1.426042,-0.641032,-5.201465,-40.580430,0.785011,13.468425,-24.900000
14.521835,-1.440152,-0.645304,-5.152625,-0.000000,0.794848,13.065006,-25.300000
14.524051,-1.449168,-0.647745,-5.103785,-0.000000,0.801422,12.938217,-25.700000
14.526263,-1.458078,-0.650492,-5.054945,-0.000000,0.807586,12.454115,-26.100000
14.529578,-1.471254,-0.653849,-4.957265,-44.474601,0.817405,12.200537,-26.700000
14.531798,-1.479956,-0.656596,-4.908425,-44.551982,0.823361,11.820171,-27.000000
14.535084,-1.492662,-0.660868,-4.859585,-0.000000,0.831794,11.255385,-27.400000
14.537276,-1.501016,-0.663920,-4.859585,-0.000000,0.837096,11.232332,-27.700000
14.540580,-1.513425,-0.668803,-4.859585,-0.000000,0.844622,10.932650,-28.000000
14.542799,-1.521634,-0.671855,-4.859585,-0.000000,0.849779,10.563810,-28.300000
14.546129,-1.533762,-0.676432,-4.859585,-0.000000,0.857330,10.137338,-28.900000
14.548336,-1.541669,-0.679484,-4.859585,-0.000000,0.862185,10.068181,-29.300000
14.551634,-1.553296,-0.684062,-4.859585,-0.000000,0.869234,9.618657,-29.600000
14.553838,-1.560932,-0.687419,-4.859585,-0.000000,0.873513,9.434237,-30.000000
14.557154,-1.572224,-0.692912,-4.908425,43.492572,0.879312,9.065397,-30.400000
14.559335,-1.579521,-0.696269,-4.908425,-0.000000,0.883252,8.650452,-30.800000
14.562711,-1.590604,-0.701152,-4.908425,-0.000000,0.889452,8.454505,-31.600000
14.564927,-1.597740,-0.703593,-4.859585,-0.000000,0.894146,8.500611,-32.000000
14.568206,-1.608096,-0.707866,-4.810745,-49.337672,0.900230,8.223980,-32.400000
14.571483,-1.618196,-0.711833,-4.761905,-45.971726,0.906362,7.855140,-32.800000
14.573716,-1.624938,-0.714580,-4.761905,-0.000000,0.910358,7.613089,-33.100000
14.575918,-1.631471,-0.717937,-4.761905,-0.000000,0.913534,7.682247,-33.800000
14.579215,-1.641039,-0.723125,-4.810745,45.807248,0.917914,7.313407,-34.100000
14.582503,-1.650324,-0.728313,-4.859585,-0.000000,0.922010,7.232723,-34.400000
14.584685,-1.656342,-0.731670,-4.859585,-0.000000,0.924672,6.979145,-34.700000
14.587963,-1.665168,-0.736858,-4.859585,-0.000000,0.928310,6.760147,-35.000000
14.590205,-1.671054,-0.739605,-4.859585,-0.000000,0.931449,6.610305,-35.600000
14.593557,-1.679623,-0.744182,-4.859585,-0.000000,0.935441,6.299096,-35.800000
14.596860,-1.687793,-0.749065,-4.859585,-0.000000,0.938728,6.218413,-36.100000
14.599056,-1.693077,-0.752422,-4.859585,-0.000000,0.940655,6.033993,-36.300000
14.602326,-1.700718,-0.757000,-4.859585,-0.000000,0.943717,5.814994,-36.600000
14.605601,-1.708099,-0.760662,-4.810745,-0.000000,0.947436,5.595995,-37.100000
14.607798,-1.712899,-0.763104,-4.761905,-0.000000,0.949795,5.699731,-37.300000
14.611068,-1.719814,-0.765850,-4.615385,-47.906925,0.953963,5.480733,-37.500000
14.613245,-1.724264,-0.767987,-4.566545,-44.795542,0.956278,5.469206,-37.800000
14.616538,-1.730762,-0.771344,-4.517705,-44.697799,0.959419,5.319365,-38.000000
14.618762,-1.734991,-0.774090,-4.468864,-44.542294,0.960901,5.181050,-38.200000
14.622078,-1.741057,-0.779278,-4.517705,45.121148,0.961779,5.146471,-38.600000
14.624330,-1.745012,-0.782940,-4.566545,43.529539,0.962071,5.146471,-38.800000
14.627604,-1.750522,-0.788434,-4.664225,43.501808,0.962088,5.077314,-39.000000
14.629786,-1.754036,-0.792096,-3.931624,-686.955105,0.961940,4.927473,-39.200000
14.633090,-1.759116,-0.796368,-4.664225,-0.000000,0.962747,4.800684,-39.400000
14.635304,-1.762357,-0.799115,-4.664225,-0.000000,0.963242,4.846789,-39.800000
14.638641,-1.766992,-0.802777,-4.615385,-0.000000,0.964215,4.800684,-40.000000
14.640828,-1.769868,-0.805219,-4.566545,-44.629632,0.964649,4.512527,-40.100000
14.644142,-1.773979,-0.808576,-4.517705,-0.000000,0.965403,4.558632,-40.300000
14.646341,-1.776543,-0.810712,-4.420024,-43.968665,0.965831,4.408791,-40.400000
14.648514,-1.778947,-0.812848,-4.371184,-44.129688,0.966099,4.570159,-40.400000
14.651789,-1.782325,-0.815900,-4.322344,-0.000000,0.966426,4.477949,-40.500000
14.655123,-1.785465,-0.818647,-4.224664,-43.090032,0.966819,4.616264,-40.500000
14.657309,-1.787358,-0.820478,-4.175824,-0.000000,0.966880,4.524054,-40.500000
14.660582,-1.789947,-0.823835,-4.126984,-0.000000,0.966112,4.662369,-40.500000
14.662806,-1.791537,-0.825666,-4.078144,-0.000000,0.965871,4.616264,-40.500000
14.666121,-1.793654,-0.829633,-4.078144,-0.000000,0.964021,4.743053,-40.500000
14.669392,-1.795446,-0.833906,-4.078144,-0.000000,0.961541,4.881368,-40.500000
14.671622,-1.796498,-0.836957,-4.126984,42.254540,0.959541,4.904420,-40.500000
14.674965,-1.797817,-0.842451,-4.224664,43.640821,0.955367,4.846789,-40.500000
14.678231,-1.798806,-0.847333,-4.273504,-0.000000,0.951473,4.962051,-40.600000
14.680438,-1.799307,-0.850080,-4.273504,-0.000000,0.949227,4.869841,-40.700000
14.683769,-1.799807,-0.853742,-4.224664,-0.000000,0.946064,5.146471,-40.700000
14.687090,-1.799998,-0.856489,-4.126984,-46.189405,0.943509,5.284786,-40.800000
