Time,TargetPosition,CurrentPosition,Velocity,Acceleration,Error,Current,Torque
23.815235,-2.244963,-2.043336,-0.268620,-0.000000,0.201627,-9.203712,-8.600000
23.818602,-2.244430,-2.043336,-0.219780,-0.000000,0.201094,-9.169133,-8.700000
23.820831,-2.244062,-2.043336,-0.219780,-0.000000,0.200726,-9.192186,-8.700000
23.824269,-2.243472,-2.043336,-0.219780,-0.000000,0.200136,-9.157607,-8.700000
23.826518,-2.243071,-2.043336,-0.219780,-0.000000,0.199735,-9.111502,-8.800000
23.829819,-2.242461,-2.043336,-0.170940,-46.409155,0.199125,-9.123028,-8.800000
23.832008,-2.242042,-2.043336,-0.170940,-41.467614,0.198706,-9.123028,-8.900000
23.835297,-2.241391,-2.043336,-0.170940,-0.000000,0.198056,-9.088449,-8.900000
23.838603,-2.240712,-2.043336,-0.170940,-0.000000,0.197376,-9.065397,-9.000000
23.840802,-2.240246,-2.043336,-0.170940,-0.000000,0.196910,-9.053871,-9.000000
23.844095,-2.239526,-2.043336,-0.170940,-0.000000,0.196190,-9.019292,-9.100000
23.846285,-2.239034,-2.043336,-0.170940,45.101280,0.195698,-8.996239,-9.200000
23.849577,-2.238272,-2.043336,-0.122100,-0.000000,0.194936,-8.938608,-9.300000
23.851768,-2.237751,-2.043336,-0.122100,-0.000000,0.194415,-8.950134,-9.400000
23.855057,-2.236947,-2.043641,-0.122100,-0.000000,0.193306,-8.904029,-9.400000
23.857256,-2.236396,-2.043336,-0.122100,-0.000000,0.193060,-8.892503,-9.500000
23.860613,-2.235532,-2.043336,-0.122100,-0.000000,0.192197,-8.834872,-9.700000
23.863893,-2.234663,-2.043336,-0.122100,-0.000000,0.191328,-8.811819,-9.700000
23.866096,-2.234065,-2.043336,-0.122100,46.127001,0.190730,-8.788767,-9.800000
23.869366,-2.233157,-2.043336,-0.122100,-0.000000,0.189821,-8.742662,-9.900000
23.871545,-2.232537,-2.043336,-0.122100,42.972522,0.189202,-8.719609,-9.900000
23.874856,-2.231575,-2.043336,-0.073260,-0.000000,0.188239,-8.661978,-10.100000
23.878190,-2.230580,-2.043336,-0.073260,-0.000000,0.187244,-8.650452,-10.100000
23.880402,-2.229906,-2.043336,-0.073260,-0.000000,0.186570,-8.615873,-10.200000
23.883695,-2.228880,-2.043336,-0.073260,-0.000000,0.185545,-8.558242,-10.200000
23.885901,-2.228179,-2.043336,-0.073260,-0.000000,0.184844,-8.523663,-10.200000
23.889226,-2.227101,-2.043336,-0.073260,-0.000000,0.183766,-8.489084,-10.300000
23.891405,-2.226381,-2.043336,-0.073260,-0.000000,0.183045,-8.454505,-10.400000
23.894721,-2.225263,-2.043336,-0.073260,-0.000000,0.181927,-8.408400,-10.400000
23.898047,-2.224116,-2.043336,-0.073260,-0.000000,0.180781,-8.350769,-10.500000
23.900272,-2.223335,-2.043336,-0.073260,-0.000000,0.179999,-8.316190,-10.500000
23.902480,-2.222548,-2.043336,-0.073260,-0.000000,0.179212,-8.281612,-10.600000
23.905812,-2.221339,-2.043030,-0.024420,-43.326991,0.178308,-8.247033,-10.600000
23.909120,-2.220113,-2.043030,-0.024420,-57.188725,0.177083,-8.177875,-10.700000
23.911324,-2.219282,-2.043030,-0.024420,-41.002805,0.176252,-8.166349,-10.700000
23.914607,-2.218024,-2.043336,-0.073260,46.705429,0.174688,-8.108718,-10.700000
23.916808,-2.217166,-2.043336,-0.024420,-45.745871,0.173830,-8.039560,-10.800000
23.920088,-2.215867,-2.043336,-0.073260,43.557306,0.172532,-7.993455,-10.800000
23.923436,-2.214516,-2.043030,-0.024420,-0.000000,0.171485,-7.924298,-10.900000
23.925704,-2.213585,-2.043336,-0.073260,45.381039,0.170249,-7.901245,-10.900000
23.928984,-2.212219,-2.043030,-0.024420,-0.000000,0.169188,-7.832088,-10.900000
23.931185,-2.211288,-2.043336,-0.024420,-0.000000,0.167952,-7.774457,-10.900000
23.934489,-2.209869,-2.043030,-0.024420,-0.000000,0.166839,-7.728352,-10.900000
23.936666,-2.208921,-2.043336,-0.024420,-0.000000,0.165586,-7.693773,-10.900000
23.939908,-2.207488,-2.043030,-0.024420,-0.000000,0.164458,-7.647668,-10.900000
23.943191,-2.206013,-2.043030,-0.024420,-0.000000,0.162983,-7.566984,-10.900000
23.945418,-2.204998,-2.043030,-0.024420,-0.000000,0.161968,-7.509353,-10.900000
23.948683,-2.203490,-2.043030,-0.024420,-0.000000,0.160460,-7.440195,-10.900000
23.950912,-2.202446,-2.043336,-0.024420,-0.000000,0.159110,-7.394090,-10.900000
23.954239,-2.200867,-2.043030,-0.024420,-0.000000,0.157837,-7.324933,-10.800000
23.956478,-2.199790,-2.043030,-0.024420,-0.000000,0.156760,-7.278828,-10.800000
23.959770,-2.198185,-2.043030,-0.024420,-0.000000,0.155155,-7.198144,-10.800000
23.963031,-2.196572,-2.043030,-0.024420,-0.000000,0.153541,-7.117460,-10.800000
23.965265,-2.195452,-2.043030,-0.024420,-0.000000,0.152422,-7.082882,-10.700000
23.968533,-2.193794,-2.042725,-0.024420,-0.000000,0.151069,-7.025250,-10.700000
23.970720,-2.192670,-2.043030,-0.024420,-0.000000,0.149640,-6.956093,-10.700000
23.973987,-2.190972,-2.043030,-0.024420,-0.000000,0.147941,-6.898462,-10.600000
23.976190,-2.189813,-2.043030,-0.024420,-0.000000,0.146783,-6.840830,-10.600000
23.979456,-2.188075,-2.043030,-0.024420,-0.000000,0.145044,-6.760147,-10.600000
23.982717,-2.186314,-2.043030,-0.024420,-0.000000,0.143284,-6.667937,-10.500000
23.984903,-2.185121,-2.043030,-0.024420,-0.000000,0.142091,-6.633358,-10.500000
23.988187,-2.183308,-2.042725,-0.024420,-0.000000,0.140583,-6.529621,-10.500000
23.990373,-2.182088,-2.042725,-0.024420,-0.000000,0.139363,-6.483516,-10.400000
23.993643,-2.180242,-2.042725,-0.024420,-0.000000,0.137517,-6.402833,-10.400000
23.996977,-2.178336,-2.042420,0.024420,-46.801465,0.135915,-6.299096,-10.400000
23.999160,-2.177073,-2.042725,-0.024420,-0.000000,0.134348,-6.252991,-10.400000
24.002519,-2.175110,-2.042725,-0.024420,-0.000000,0.132385,-6.183834,-10.300000
24.004717,-2.173812,-2.042725,-0.024420,-0.000000,0.131087,-6.137729,-10.300000
24.008061,-2.171816,-2.042725,-0.024420,-0.000000,0.129091,-6.010940,-10.300000
24.010266,-2.170487,-2.042725,-0.024420,-0.000000,0.127761,-5.976361,-10.300000
24.013531,-2.168498,-2.042725,-0.024420,-0.000000,0.125772,-5.895678,-10.300000
24.015705,-2.167160,-2.042420,-0.024420,-0.000000,0.124739,-5.814994,-10.300000
24.018989,-2.165119,-2.042725,-0.024420,-0.000000,0.122394,-5.722784,-10.300000
24.022268,-2.163057,-2.042725,-0.024420,-0.000000,0.120332,-5.619048,-10.300000
24.024454,-2.161669,-2.042725,-0.024420,-0.000000,0.118944,-5.584469,-10.300000
24.027728,-2.159571,-2.042420,-0.024420,45.240727,0.117151,-5.480733,-10.300000
24.030048,-2.158070,-2.042725,-0.024420,39.432149,0.115344,-5.388523,-10.300000
24.033343,-2.155917,-2.042420,-0.024420,-0.000000,0.113497,-5.330891,-10.300000
24.036656,-2.153728,-2.042420,-0.024420,41.093282,0.111307,-5.204103,-10.300000
24.038816,-2.152287,-2.042420,-0.024420,-0.000000,0.109867,-5.169524,-10.300000
24.042096,-2.150080,-2.042420,0.024420,-0.000000,0.107660,-5.077314,-10.300000
24.044289,-2.148591,-2.042420,-0.024420,-0.000000,0.106171,-4.962051,-10.300000
24.047596,-2.146326,-2.042420,-0.024420,42.072297,0.103906,-4.892894,-10.300000
24.049797,-2.144805,-2.042115,0.024420,-0.000000,0.102690,-4.823736,-10.300000
24.053060,-2.142531,-2.042115,0.024420,-0.000000,0.100416,-4.708474,-10.400000
24.055235,-2.141002,-2.042115,0.024420,-0.000000,0.098887,-4.662369,-10.400000
24.058510,-2.138680,-2.042115,-0.024420,45.071510,0.096565,-4.570159,-10.400000
24.061863,-2.136278,-2.042115,0.024420,-0.000000,0.094163,-4.431844,-10.400000
24.064101,-2.134662,-2.042115,-0.024420,45.002200,0.092547,-4.374212,-10.400000
24.067428,-2.132238,-2.042115,0.024420,-0.000000,0.090123,-4.258950,-10.400000
24.069737,-2.130541,-2.042115,0.024420,-0.000000,0.088426,-4.189792,-10.500000
24.073140,-2.128021,-2.042115,0.024420,-0.000000,0.085906,-4.074530,-10.500000
24.075356,-2.126365,-2.042115,-0.024420,44.436011,0.084250,-3.993846,-10.500000
24.078685,-2.123859,-2.041810,0.024420,-0.000000,0.082049,-3.890110,-10.500000
24.080900,-2.122177,-2.041810,0.024420,-0.000000,0.080367,-3.844005,-10.500000
24.084134,-2.119703,-2.041810,0.024420,-0.000000,0.077894,-3.717216,-10.500000
24.086334,-2.118008,-2.041810,0.024420,-0.000000,0.076199,-3.625006,-10.500000
24.089634,-2.115445,-2.041505,0.024420,-0.000000,0.073940,-3.521270,-10.600000
24.091791,-2.113757,-2.041810,0.024420,-0.000000,0.071947,-3.440586,-10.600000
24.095115,-2.111135,-2.041505,0.024420,-0.000000,0.069631,-3.348376,-10.600000
24.098416,-2.108509,-2.041505,0.024420,-0.000000,0.067004,-3.210061,-10.600000
24.100644,-2.106724,-2.041505,0.024420,-0.000000,0.065219,-3.129377,-10.600000
24.102865,-2.104933,-2.041199,0.024420,-0.000000,0.063733,-3.060220,-10.600000
24.106151,-2.102263,-2.041199,0.024420,-0.000000,0.061064,-2.933431,-10.600000
24.109474,-2.099541,-2.041199,0.024420,-0.000000,0.058341,-2.829695,-10.600000
24.111714,-2.097692,-2.041199,0.024420,-0.000000,0.056493,-2.714432,-10.600000
24.113864,-2.095908,-2.041199,0.024420,-0.000000,0.054709,-2.668327,-10.600000
24.117200,-2.093120,-2.040894,0.024420,-0.000000,0.052226,-2.541538,-10.600000
24.119379,-2.091286,-2.040894,0.024420,-0.000000,0.050392,-2.460855,-10.500000
24.122736,-2.088442,-2.040589,0.024420,45.684659,0.047853,-2.345592,-10.500000
24.126031,-2.085627,-2.040589,0.073260,-0.000000,0.045038,-2.230330,-10.500000
24.128278,-2.083693,-2.040284,0.073260,-44.158226,0.043410,-2.149646,-10.500000
24.131570,-2.080842,-2.040284,0.073260,-0.000000,0.040558,-2.022857,-10.500000
24.133727,-2.078962,-2.039979,0.073260,-0.000000,0.038983,-1.953700,-10.500000
24.136959,-2.076126,-2.039673,0.073260,-0.000000,0.036452,-1.849963,-10.400000
24.139107,-2.074228,-2.039673,0.073260,-0.000000,0.034555,-1.780806,-10.400000
24.142341,-2.071354,-2.039368,0.122100,-0.000000,0.031986,-1.665543,-10.400000
24.144492,-2.069431,-2.039063,0.122100,-0.000000,0.030367,-1.596386,-10.400000
24.147725,-2.066520,-2.038758,0.122100,-0.000000,0.027762,-1.504176,-10.300000
24.149887,-2.064562,-2.038453,0.122100,-0.000000,0.026109,-1.423492,-10.300000
24.153126,-2.061612,-2.037842,0.170940,-0.000000,0.023769,-1.342808,-10.300000
24.155278,-2.059639,-2.037232,0.219780,-45.290739,0.022407,-1.273651,-10.200000
24.158503,-2.056664,-2.036316,0.219780,-0.000000,0.020347,-1.181441,-10.100000
24.160654,-2.054668,-2.036011,0.268620,-0.000000,0.018657,-1.135336,-10.100000
24.163886,-2.051651,-2.034791,0.317460,-0.000000,0.016860,-1.066178,-10.000000
24.166039,-2.049629,-2.033875,0.366300,-45.121148,0.015754,-1.020073,-10.000000
24.169316,-2.046534,-2.032959,0.415140,-44.522932,0.013575,-0.950916,-9.900000
24.171471,-2.044487,-2.031739,0.463980,-44.972560,0.012748,-0.950916,-9.800000
24.174703,-2.041398,-2.030213,0.512821,-0.000000,0.011185,-0.870232,-9.700000
24.176853,-2.039332,-2.029297,0.561661,-0.000000,0.010034,-0.847179,-9.600000
24.180076,-2.036216,-2.027771,0.610501,-0.000000,0.008445,-0.789548,-9.500000
24.182225,-2.034127,-2.026551,0.659341,-0.000000,0.007576,-0.731917,-9.500000
24.185492,-2.030934,-2.025025,0.757021,-43.696675,0.005909,-0.720391,-9.400000
24.187672,-2.028791,-2.023499,0.805861,-46.577993,0.005292,-0.685812,-9.300000
24.189827,-2.026663,-2.022583,0.805861,-0.000000,0.004080,-0.662759,-9.200000
24.193141,-2.023372,-2.020752,0.903541,-43.790084,0.002620,-0.628181,-9.000000
24.196383,-2.020132,-2.018921,0.952381,-0.000000,0.001211,-0.605128,-8.900000
24.198576,-2.017928,-2.017700,1.001221,-45.270721,0.000228,-0.559023,-8.800000
24.200725,-2.015759,-2.016175,1.050061,-45.848257,-0.000415,-0.559023,-8.700000
24.203946,-2.012491,-2.014343,1.098901,-0.000000,-0.001852,-0.501392,-8.600000
24.206092,-2.010302,-2.012818,1.147741,-50.443244,-0.002515,-0.478339,-8.500000
24.209315,-2.006997,-2.010681,1.196581,-0.000000,-0.003684,-0.443761,-8.200000
24.212577,-2.003631,-2.008545,1.245421,-0.000000,-0.004914,-0.397656,-8.100000
24.214730,-2.001398,-2.007324,1.294261,-0.000000,-0.005926,-0.374603,-8.000000
24.217967,-1.998024,-2.005188,1.343101,-0.000000,-0.007164,-0.351551,-7.900000
24.220169,-1.995716,-2.003662,1.391941,-0.000000,-0.007946,-0.328498,-7.800000
24.223448,-1.992262,-2.001526,1.440781,-0.000000,-0.009263,-0.293919,-7.700000
24.225697,-1.989882,-1.999695,1.489621,-40.182427,-0.009813,-0.282393,-7.600000
24.228999,-1.986368,-1.997559,1.538462,-0.000000,-0.011191,-0.259341,-7.400000
24.232231,-1.982908,-1.995117,1.587302,-0.000000,-0.012209,-0.247814,-7.300000
24.234414,-1.980560,-1.993591,1.636142,-0.000000,-0.013031,-0.247814,-7.300000
24.236559,-1.978244,-1.991760,1.684982,-0.000000,-0.013516,-0.236288,-7.200000
24.239779,-1.974750,-1.989014,1.733822,-0.000000,-0.014264,-0.224762,-7.100000
24.241964,-1.972367,-1.987182,1.782662,-0.000000,-0.014815,-0.236288,-6.900000
24.245183,-1.968840,-1.984436,1.880342,-45.471701,-0.015596,-0.201709,-6.800000
24.248420,-1.965273,-1.981079,1.929182,-44.044294,-0.015806,-0.247814,-6.800000
24.250602,-1.962858,-1.978943,2.026862,-45.160937,-0.016085,-0.213236,-6.700000
24.253922,-1.959166,-1.975280,2.124542,-42.403232,-0.016115,-0.213236,-6.600000
24.256153,-1.956672,-1.973144,2.173382,-46.127001,-0.016473,-0.236288,-6.400000
24.259499,-1.952915,-1.969482,2.271062,-43.987548,-0.016567,-0.247814,-6.300000
24.261815,-1.950302,-1.966430,2.368742,-38.332712,-0.016128,-0.351551,-6.300000
24.265147,-1.946524,-1.962463,2.466422,-44.416742,-0.015939,-0.409182,-6.200000
24.267356,-1.944009,-1.959716,2.515263,-42.289433,-0.015708,-0.443761,-6.100000
24.270662,-1.940227,-1.955444,2.612943,-0.000000,-0.015217,-0.489866,-6.000000
24.272860,-1.937701,-1.952697,2.710623,-43.520292,-0.014996,-0.501392,-5.800000
24.276140,-1.933915,-1.948119,2.808303,-0.000000,-0.014205,-0.582076,-5.700000
24.279425,-1.930102,-1.943847,2.905983,-0.000000,-0.013745,-0.639707,-5.600000
24.281642,-1.927518,-1.941100,2.954823,-0.000000,-0.013582,-0.697338,-5.500000
24.284989,-1.923599,-1.936217,3.101343,-44.416742,-0.012618,-0.766496,-5.400000
24.287242,-1.920949,-1.933471,3.150183,-43.818184,-0.012522,-0.789548,-5.300000
24.290552,-1.917041,-1.928893,3.247863,-44.272750,-0.011852,-0.870232,-5.200000
24.292758,-1.914424,-1.925841,3.296703,-42.394456,-0.011417,-0.962442,-5.100000
24.296132,-1.910404,-1.920958,3.394383,-42.792984,-0.010554,-1.031600,-5.100000
24.298351,-1.907748,-1.917906,3.443223,-42.394456,-0.010158,-1.043126,-5.000000
24.301646,-1.903790,-1.913024,3.540904,-41.994672,-0.009234,-1.112283,-4.900000
24.303857,-1.901123,-1.909972,3.589744,-43.921529,-0.008849,-1.123810,-4.900000
24.307190,-1.897084,-1.905089,3.638584,-0.000000,-0.008005,-1.239072,-4.900000
24.310511,-1.893041,-1.900206,3.736264,-41.960265,-0.007165,-1.319756,-4.800000
24.312705,-1.890358,-1.896849,3.785104,-0.000000,-0.006491,-1.423492,-4.800000
24.314888,-1.887680,-1.893797,3.833944,-0.000000,-0.006117,-1.365861,-4.800000
24.318086,-1.883743,-1.888609,3.931624,-46.684141,-0.004866,-1.458071,-4.800000
24.321361,-1.879691,-1.883421,4.029304,-45.121148,-0.003730,-1.538755,-4.800000
24.323517,-1.877013,-1.880064,4.078144,-44.455298,-0.003051,-1.619438,-4.900000
24.326805,-1.872913,-1.874876,4.126984,-0.000000,-0.001963,-1.711648,-4.900000
24.328984,-1.870187,-1.871519,4.175824,-0.000000,-0.001332,-1.838437,-4.900000
24.332298,-1.866022,-1.866026,4.273504,-44.006447,-0.000003,-1.919121,-5.000000
24.334472,-1.863280,-1.862669,4.322344,-43.345326,0.000611,-1.884542,-5.100000
24.337729,-1.859157,-1.857176,4.371184,-0.000000,0.001981,-2.022857,-5.100000
24.339928,-1.856362,-1.853819,4.420024,-0.000000,0.002543,-1.988278,-5.200000
24.343215,-1.852168,-1.848325,4.468864,-0.000000,0.003843,-2.057436,-5.200000
24.345405,-1.849363,-1.844663,4.517705,-0.000000,0.004700,-2.115067,-5.300000
24.348679,-1.845156,-1.839475,4.566545,-0.000000,0.005681,-2.184225,-5.400000
24.351943,-1.840943,-1.833982,4.615385,-0.000000,0.006961,-2.253382,-5.500000
24.354223,-1.837989,-1.830320,4.664225,-0.000000,0.007669,-2.380171,-5.600000
24.357523,-1.833697,-1.824826,4.713065,-0.000000,0.008871,-2.391697,-5.700000
24.359701,-1.830855,-1.821469,4.713065,-0.000000,0.009385,-2.541538,-5.800000
24.362985,-1.826552,-1.816281,4.761905,-0.000000,0.010271,-2.576117,-6.000000
24.365182,-1.823665,-1.812619,4.810745,-46.377635,0.011046,-2.553065,-6.100000
24.368446,-1.819360,-1.807736,4.810745,-0.000000,0.011623,-2.622222,-6.200000
24.371708,-1.815039,-1.802853,4.810745,-0.000000,0.012186,-2.645275,-6.300000
24.373888,-1.812141,-1.799191,4.859585,-0.000000,0.012950,-2.622222,-6.400000
24.377176,-1.807755,-1.794308,4.859585,-0.000000,0.013447,-2.656801,-6.600000
24.379361,-1.804832,-1.790951,4.859585,-0.000000,0.013880,-2.829695,-6.700000
24.382632,-1.800439,-1.785763,4.908425,-0.000000,0.014676,-2.864274,-6.900000
24.384884,-1.797404,-1.782406,4.908425,-0.000000,0.014998,-2.910379,-7.000000
24.388211,-1.792907,-1.777218,4.908425,-0.000000,0.015689,-2.979536,-7.100000
24.390415,-1.789917,-1.773251,4.957265,-0.000000,0.016666,-2.887326,-7.300000
24.393728,-1.785407,-1.768063,5.006105,-43.108168,0.017344,-2.991062,-7.500000
24.397030,-1.780895,-1.762570,5.006105,-0.000000,0.018325,-3.071746,-7.600000
24.399216,-1.777897,-1.758907,5.054945,-47.386077,0.018990,-2.956484,-7.700000
24.402537,-1.773329,-1.753109,5.103785,-44.962689,0.020220,-3.083272,-7.800000
24.404719,-1.770319,-1.749447,5.103785,-0.000000,0.020872,-3.083272,-8.100000
24.408040,-1.765721,-1.743954,5.103785,-0.000000,0.021767,-3.163956,-8.200000
24.411304,-1.761185,-1.738766,5.152625,-0.000000,0.022419,-3.175482,-8.300000
24.413484,-1.758146,-1.735103,5.152625,-0.000000,0.023042,-3.244640,-8.400000
24.416783,-1.753533,-1.729915,5.152625,-0.000000,0.023617,-3.244640,-8.500000
24.418992,-1.750434,-1.726253,5.152625,-0.000000,0.024181,-3.394481,-8.800000
24.422299,-1.745781,-1.721370,5.152625,46.567404,0.024410,-3.394481,-8.900000
24.424516,-1.742652,-1.717708,5.152625,-0.000000,0.024944,-3.394481,-9.000000
24.427823,-1.737970,-1.712825,5.152625,-0.000000,0.025145,-3.417534,-9.100000
24.431142,-1.733253,-1.707637,5.152625,-0.000000,0.025616,-3.452112,-9.300000
24.433365,-1.730086,-1.704280,5.152625,-0.000000,0.025806,-3.336850,-9.500000
24.436634,-1.725412,-1.699397,5.152625,-0.000000,0.026015,-3.336850,-9.600000
24.438811,-1.722291,-1.696345,5.103785,45.583002,0.025946,-3.452112,-9.700000
24.442079,-1.717593,-1.691157,5.152625,-43.902703,0.026436,-3.498217,-9.800000
24.444258,-1.714451,-1.688106,5.103785,-0.000000,0.026345,-3.509744,-9.900000
24.447536,-1.709710,-1.682918,5.103785,-0.000000,0.026793,-3.486691,-10.100000
24.450812,-1.704957,-1.678340,5.103785,-0.000000,0.026617,-3.475165,-10.200000
24.453006,-1.701764,-1.674983,5.103785,-0.000000,0.026781,-3.394481,-10.300000
24.456279,-1.696987,-1.669795,5.103785,-0.000000,0.027192,-3.382955,-10.400000
24.458521,-1.693705,-1.666438,5.103785,-41.840280,0.027267,-3.509744,-10.400000
24.461821,-1.688862,-1.661860,5.054945,-0.000000,0.027002,-3.521270,-10.600000
24.465176,-1.683922,-1.656672,5.054945,-0.000000,0.027250,-3.498217,-10.600000
24.467379,-1.680669,-1.653620,5.054945,-0.000000,0.027049,-3.429060,-10.700000
24.470817,-1.675578,-1.649042,5.006105,40.324806,0.026536,-3.394481,-10.700000
24.473106,-1.672179,-1.645686,5.006105,-0.000000,0.026493,-3.348376,-10.800000
24.475366,-1.668816,-1.642634,4.957265,42.438370,0.026182,-3.463639,-10.800000
24.478770,-1.663735,-1.637751,4.957265,-0.000000,0.025984,-3.440586,-10.900000
24.482147,-1.658679,-1.633173,4.908425,44.320643,0.025506,-3.394481,-10.900000
24.484428,-1.655255,-1.630121,4.908425,-0.000000,0.025134,-3.267692,-10.900000
24.486726,-1.651796,-1.627070,4.908425,-0.000000,0.024727,-3.371429,-11.000000
24.490166,-1.646606,-1.622492,4.859585,-0.000000,0.024114,-3.348376,-11.000000
24.493556,-1.641476,-1.617914,4.810745,42.659311,0.023562,-3.279219,-11.100000
24.495796,-1.638076,-1.615167,4.810745,-0.000000,0.022908,-3.129377,-11.100000
24.498061,-1.634632,-1.612116,4.761905,44.982436,0.022516,-3.210061,-11.100000
24.501433,-1.629491,-1.607538,4.761905,-0.000000,0.021953,-3.198535,-11.100000
24.503681,-1.626055,-1.604486,4.761905,-0.000000,0.021569,-3.048694,-11.100000
24.507067,-1.620866,-1.599908,4.713065,-0.000000,0.020958,-3.002589,-11.100000
24.509329,-1.617391,-1.596857,4.713065,-0.000000,0.020535,-3.106325,-11.100000
24.512692,-1.612212,-1.592584,4.664225,41.797595,0.019628,-3.048694,-11.100000
24.516076,-1.606985,-1.588006,4.664225,-0.000000,0.018979,-2.991062,-11.100000
