Time,TargetPosition,CurrentPosition,Velocity,Acceleration,Error,Current,Torque
4.124838,-0.001031,0.004730,-0.024420,-0.000000,0.005762,-0.005763,-0.600000
4.126181,-0.002063,0.004730,-0.024420,-0.000000,0.006793,-0.005763,-0.600000
4.128717,-0.004127,0.004730,-0.024420,-0.000000,0.008857,-0.178657,-0.600000
4.131274,-0.006192,0.004730,-0.024420,-0.000000,0.010922,-0.305446,-0.600000
4.135191,-0.009293,0.004730,-0.024420,-0.000000,0.014023,-0.443761,-0.600000
4.137759,-0.011361,0.004730,-0.024420,-0.000000,0.016091,-0.547497,-0.600000
4.140333,-0.013431,0.004425,-0.024420,-0.000000,0.017856,-0.651233,-0.600000
4.142914,-0.015502,0.004425,-0.073260,37.991471,0.019927,-0.720391,-0.600000
4.146549,-0.018611,0.004120,-0.073260,-0.000000,0.022731,-0.847179,-0.600000
4.148880,-0.020685,0.003815,-0.073260,-0.000000,0.024500,-0.950916,-0.600000
4.151184,-0.022761,0.003510,-0.073260,-0.000000,0.026270,-1.020073,-0.600000
4.153441,-0.024837,0.003510,-0.122100,-0.000000,0.028347,-1.089231,-0.600000
4.156788,-0.027954,0.002594,-0.170940,41.891618,0.030548,-1.192967,-0.600000
4.159033,-0.030033,0.002289,-0.170940,-0.000000,0.032322,-1.273651,-0.600000
4.162379,-0.033154,0.001678,-0.219780,43.400426,0.034832,-1.388913,-0.600000
4.164561,-0.035236,0.001373,-0.219780,-0.000000,0.036609,-1.469597,-0.700000
4.167901,-0.038361,0.000458,-0.268620,-0.000000,0.038819,-1.561807,-0.700000
4.170123,-0.040446,-0.000153,-0.268620,-0.000000,0.040293,-1.630965,-0.700000
4.173478,-0.043575,-0.000763,-0.317460,44.015903,0.042812,-1.746227,-0.700000
4.175765,-0.045663,-0.001068,-0.317460,-0.000000,0.044595,-1.826911,-0.700000
4.179141,-0.048796,-0.001984,-0.366300,-0.000000,0.046813,-1.919121,-0.700000
4.181399,-0.050887,-0.002289,-0.366300,-0.000000,0.048598,-1.965226,-0.800000
4.184769,-0.054024,-0.003204,-0.415140,41.019226,0.050820,-2.057436,-0.800000
4.187025,-0.056118,-0.003815,-0.415140,-0.000000,0.052303,-2.126593,-0.800000
4.190391,-0.059260,-0.004425,-0.415140,-0.000000,0.054834,-2.230330,-0.900000
4.192625,-0.061356,-0.005035,-0.463980,-0.000000,0.056320,-2.311013,-0.900000
4.196004,-0.064502,-0.005646,-0.463980,-0.000000,0.058856,-2.403223,-0.900000
4.198339,-0.066601,-0.006256,-0.463980,-0.000000,0.060344,-2.472381,-0.900000
4.201685,-0.069751,-0.006867,-0.512821,-0.000000,0.062884,-2.564591,-1.000000
4.203951,-0.071853,-0.007477,-0.512821,-0.000000,0.064376,-2.633748,-1.000000
4.207348,-0.075007,-0.008392,-0.561661,-0.000000,0.066615,-2.679853,-1.000000
4.209661,-0.077112,-0.009003,-0.561661,-0.000000,0.068109,-2.772063,-1.100000
4.213121,-0.080271,-0.010224,-0.610501,40.009768,0.070047,-2.852747,-1.100000
4.215432,-0.082378,-0.011139,-0.610501,-0.000000,0.071239,-2.898852,-1.100000
4.218815,-0.085542,-0.012360,-0.659341,-0.000000,0.073182,-2.933431,-1.200000
4.221072,-0.087652,-0.013275,-0.708181,-0.000000,0.074376,-2.933431,-1.200000
4.224457,-0.090819,-0.015106,-0.757021,-0.000000,0.075713,-2.991062,-1.200000
4.226735,-0.092932,-0.016327,-0.805861,-0.000000,0.076605,-3.048694,-1.200000
4.228998,-0.095047,-0.018158,-0.903541,43.733991,0.076888,-3.048694,-1.300000
4.232408,-0.098220,-0.019989,-0.952381,-0.000000,0.078231,-3.025641,-1.300000
4.235789,-0.101396,-0.022431,-1.050061,-0.000000,0.078965,-3.071746,-1.300000
4.238065,-0.103515,-0.024262,-1.147741,45.270721,0.079253,-3.002589,-1.400000
4.241415,-0.106695,-0.027008,-1.245421,44.913399,0.079687,-3.071746,-1.400000
4.243652,-0.108817,-0.029145,-1.343101,43.883893,0.079672,-2.968010,-1.500000
4.246991,-0.112001,-0.032197,-1.440781,44.244063,0.079804,-3.014115,-1.500000
4.249220,-0.114125,-0.034333,-1.538462,43.308671,0.079793,-2.921905,-1.500000
4.252563,-0.117314,-0.037690,-1.636142,43.400426,0.079624,-2.910379,-1.500000
4.254951,-0.119441,-0.040131,-1.733822,43.428029,0.079310,-2.829695,-1.600000
4.258255,-0.122634,-0.044099,-1.880342,45.031878,0.078535,-2.749011,-1.600000
4.260464,-0.124764,-0.046235,-1.929182,43.818184,0.078529,-2.760537,-1.700000
4.263753,-0.127961,-0.049897,-2.026862,46.951642,0.078064,-2.656801,-1.700000
4.265934,-0.130094,-0.052338,-2.124542,43.640821,0.077755,-2.691380,-1.700000
4.269243,-0.133295,-0.056001,-2.222222,46.599184,0.077294,-2.587643,-1.800000
4.271430,-0.135430,-0.058442,-2.271062,-0.000000,0.076988,-2.564591,-1.800000
4.274742,-0.138635,-0.061799,-2.368742,44.339829,0.076836,-2.587643,-1.900000
4.276963,-0.140774,-0.064546,-2.417582,-0.000000,0.076228,-2.483907,-2.000000
4.280252,-0.143983,-0.067597,-2.466422,-0.000000,0.076385,-2.483907,-2.000000
4.282474,-0.146124,-0.069734,-2.515263,-0.000000,0.076390,-2.449328,-2.100000
4.286016,-0.149338,-0.073396,-2.564103,-0.000000,0.075942,-2.449328,-2.100000
4.289596,-0.152554,-0.076448,-2.612943,42.029137,0.076106,-2.460855,-2.200000
4.291977,-0.154700,-0.078279,-2.612943,-0.000000,0.076421,-2.426276,-2.200000
4.294373,-0.156846,-0.080110,-2.612943,-0.000000,0.076737,-2.437802,-2.300000
4.297938,-0.160069,-0.082551,-2.564103,-0.000000,0.077518,-2.472381,-2.300000
4.301522,-0.163294,-0.084993,-2.564103,-0.000000,0.078301,-2.541538,-2.400000
4.303881,-0.165446,-0.086213,-2.515263,-41.283759,0.079232,-2.610696,-2.500000
4.306160,-0.167599,-0.087739,-2.515263,-0.000000,0.079859,-2.622222,-2.500000
4.309527,-0.170830,-0.089570,-2.466422,-0.000000,0.081260,-2.668327,-2.600000
4.311750,-0.172986,-0.090486,-2.417582,-0.000000,0.082500,-2.772063,-2.600000
4.315089,-0.176221,-0.092012,-2.368742,-0.000000,0.084209,-2.864274,-2.700000
4.318438,-0.179459,-0.093233,-2.319902,-0.000000,0.086226,-2.887326,-2.700000
4.320704,-0.181619,-0.094453,-2.271062,-0.000000,0.087166,-2.968010,-2.700000
4.322971,-0.183780,-0.095369,-2.222222,-0.000000,0.088411,-3.048694,-2.700000
4.326331,-0.187024,-0.096590,-2.173382,-0.000000,0.090435,-3.163956,-2.700000
4.328561,-0.189188,-0.097505,-2.124542,-41.840280,0.091683,-3.198535,-2.800000
4.331340,-0.191354,-0.098726,-2.124542,-0.000000,0.092628,-3.210061,-2.800000
4.333909,-0.193520,-0.100252,-2.075702,-0.000000,0.093268,-3.290745,-2.800000
4.337690,-0.196772,-0.102388,-2.075702,-0.000000,0.094384,-3.336850,-2.800000
4.340220,-0.198942,-0.104219,-2.075702,-0.000000,0.094723,-3.313797,-2.800000
4.342529,-0.201113,-0.105440,-2.075702,-0.000000,0.095673,-3.394481,-2.800000
4.345833,-0.204372,-0.107881,-2.124542,-0.000000,0.096491,-3.429060,-2.800000
4.349152,-0.207633,-0.110628,-2.124542,-0.000000,0.097005,-3.463639,-2.800000
4.351357,-0.209808,-0.112154,-2.173382,42.900526,0.097654,-3.521270,-2.800000
4.353579,-0.211985,-0.113680,-2.173382,-0.000000,0.098305,-3.475165,-2.800000
4.356860,-0.215252,-0.116426,-2.222222,-0.000000,0.098825,-3.578901,-2.800000
4.360171,-0.218521,-0.119173,-2.222222,-0.000000,0.099348,-3.544322,-2.900000
4.362390,-0.220702,-0.121004,-2.271062,-0.000000,0.099698,-3.601954,-2.900000
4.365714,-0.223975,-0.123751,-2.271062,-0.000000,0.100225,-3.578901,-2.900000
4.367917,-0.226159,-0.125582,-2.319902,-0.000000,0.100577,-3.625006,-2.900000
4.371201,-0.229437,-0.128023,-2.319902,-0.000000,0.101413,-3.648059,-3.000000
4.373370,-0.231623,-0.129854,-2.368742,46.577993,0.101769,-3.636532,-3.000000
4.376670,-0.234905,-0.131991,-2.368742,-0.000000,0.102914,-3.717216,-3.000000
4.378879,-0.237094,-0.133822,-2.368742,-0.000000,0.103272,-3.659585,-3.100000
4.382176,-0.240380,-0.136263,-2.368742,-0.000000,0.104117,-3.751795,-3.100000
4.384664,-0.242572,-0.138094,-2.368742,-0.000000,0.104477,-3.717216,-3.100000
4.387232,-0.244765,-0.139925,-2.368742,-0.000000,0.104840,-3.740269,-3.100000
4.389821,-0.246959,-0.141756,-2.368742,-0.000000,0.105203,-3.774847,-3.200000
4.393468,-0.250254,-0.144808,-2.417582,-0.000000,0.105446,-3.694164,-3.200000
4.395968,-0.252451,-0.146944,-2.417582,-0.000000,0.105507,-3.786374,-3.200000
4.398555,-0.254650,-0.149081,-2.466422,37.963308,0.105570,-3.717216,-3.200000
4.400879,-0.256850,-0.151217,-2.466422,-0.000000,0.105633,-3.774847,-3.200000
4.404221,-0.260153,-0.154269,-2.515263,-0.000000,0.105884,-3.694164,-3.200000
4.407536,-0.263458,-0.157321,-2.564103,-0.000000,0.106137,-3.786374,-3.200000
4.409736,-0.265662,-0.159457,-2.564103,-0.000000,0.106205,-3.705690,-3.200000
4.413023,-0.268971,-0.162814,-2.612943,-0.000000,0.106157,-3.717216,-3.200000
4.415205,-0.271178,-0.164950,-2.661783,-0.000000,0.106228,-3.717216,-3.200000
4.417431,-0.273387,-0.167086,-2.661783,-0.000000,0.106301,-3.751795,-3.200000
4.420800,-0.276702,-0.170138,-2.710623,-0.000000,0.106564,-3.705690,-3.200000
4.423043,-0.278913,-0.172274,-2.759463,43.511048,0.106638,-3.705690,-3.300000
4.426374,-0.282232,-0.175631,-2.759463,-0.000000,0.106600,-3.705690,-3.300000
4.428570,-0.284446,-0.177768,-2.808303,43.511048,0.106678,-3.717216,-3.300000
4.431917,-0.287769,-0.180514,-2.808303,-0.000000,0.107255,-3.751795,-3.300000
4.434111,-0.289986,-0.182956,-2.808303,-0.000000,0.107030,-3.740269,-3.300000
4.437393,-0.293313,-0.185702,-2.857143,44.874044,0.107611,-3.751795,-3.300000
4.440723,-0.296643,-0.188449,-2.857143,-0.000000,0.108194,-3.717216,-3.300000
4.442909,-0.298864,-0.190280,-2.857143,45.909909,0.108584,-3.763321,-3.300000
4.446238,-0.302198,-0.193332,-2.857143,-0.000000,0.108866,-3.717216,-3.300000
4.448449,-0.304422,-0.195163,-2.857143,-0.000000,0.109259,-3.763321,-3.300000
4.450659,-0.306647,-0.196994,-2.857143,-0.000000,0.109653,-3.797900,-3.200000
4.453958,-0.309986,-0.199741,-2.857143,-0.000000,0.110246,-3.763321,-3.200000
4.457278,-0.313328,-0.202792,-2.857143,-0.000000,0.110536,-3.786374,-3.200000
4.460567,-0.316673,-0.205844,-2.857143,-0.000000,0.110829,-3.809426,-3.200000
4.462807,-0.318904,-0.207980,-2.905983,-0.000000,0.110924,-3.751795,-3.200000
4.466102,-0.322253,-0.211337,-2.905983,-0.000000,0.110915,-3.832479,-3.200000
4.469449,-0.325604,-0.214694,-2.954823,-0.000000,0.110910,-3.763321,-3.200000
4.472762,-0.328958,-0.218357,-3.003663,40.540276,0.110601,-3.728742,-3.200000
4.474966,-0.331195,-0.220798,-3.003663,-0.000000,0.110397,-3.774847,-3.300000
4.478222,-0.334553,-0.224155,-3.052503,-0.000000,0.110398,-3.694164,-3.300000
4.481484,-0.337913,-0.227817,-3.101343,-0.000000,0.110096,-3.682637,-3.300000
4.484781,-0.341276,-0.231479,-3.150183,-0.000000,0.109797,-3.728742,-3.300000
4.488074,-0.344641,-0.235142,-3.150183,-0.000000,0.109500,-3.671111,-3.300000
4.490304,-0.346886,-0.237583,-3.199023,-0.000000,0.109303,-3.659585,-3.400000
4.493566,-0.350255,-0.241245,-3.247863,44.844574,0.109010,-3.694164,-3.400000
4.495806,-0.352503,-0.243381,-3.247863,-0.000000,0.109122,-3.601954,-3.400000
4.499090,-0.355877,-0.246738,-3.247863,-0.000000,0.109138,-3.659585,-3.400000
4.502389,-0.359253,-0.250401,-3.296703,47.862152,0.108852,-3.636532,-3.400000
4.504558,-0.361505,-0.252537,-3.247863,-46.854989,0.108968,-3.636532,-3.400000
4.507839,-0.364885,-0.255589,-3.247863,-44.756393,0.109296,-3.636532,-3.400000
4.510026,-0.367139,-0.257725,-3.247863,-0.000000,0.109415,-3.578901,-3.400000
4.513363,-0.370524,-0.261387,-3.296703,42.219706,0.109137,-3.648059,-3.400000
4.515564,-0.372781,-0.263218,-3.296703,-0.000000,0.109563,-3.544322,-3.400000
4.518845,-0.376169,-0.266270,-3.247863,-0.000000,0.109899,-3.625006,-3.400000
4.521011,-0.378430,-0.268711,-3.296703,-0.000000,0.109718,-3.532796,-3.300000
4.524269,-0.381822,-0.272068,-3.296703,-0.000000,0.109754,-3.625006,-3.300000
4.527566,-0.385217,-0.275425,-3.296703,-0.000000,0.109792,-3.578901,-3.300000
4.529756,-0.387481,-0.277867,-3.345543,-0.000000,0.109615,-3.544322,-3.300000
4.533015,-0.390880,-0.281834,-3.345543,-0.000000,0.109046,-3.578901,-3.300000
4.535180,-0.393148,-0.284276,-3.394383,-0.000000,0.108872,-3.509744,-3.300000
4.538466,-0.396551,-0.287938,-3.394383,-0.000000,0.108613,-3.486691,-3.300000
4.541770,-0.399956,-0.291905,-3.443223,-0.000000,0.108051,-3.555849,-3.300000
4.544046,-0.402228,-0.294347,-3.492063,43.464887,0.107881,-3.440586,-3.300000
4.547312,-0.405638,-0.298314,-3.492063,-0.000000,0.107324,-3.417534,-3.300000
4.549542,-0.407912,-0.300755,-3.492063,-0.000000,0.107157,-3.475165,-3.300000
4.552870,-0.411326,-0.304417,-3.492063,-0.000000,0.106909,-3.406007,-3.300000
4.556155,-0.414742,-0.307774,-3.540904,-0.000000,0.106968,-3.406007,-3.300000
4.558348,-0.417021,-0.310216,-3.540904,-0.000000,0.106805,-3.440586,-3.300000
4.561679,-0.420442,-0.313878,-3.540904,-0.000000,0.106564,-3.348376,-3.300000
4.563861,-0.422723,-0.316320,-3.540904,-0.000000,0.106404,-3.394481,-3.300000
4.566068,-0.425006,-0.318456,-3.540904,-0.000000,0.106550,-3.313797,-3.200000
4.569402,-0.428432,-0.322118,-3.540904,-0.000000,0.106314,-3.348376,-3.200000
4.572668,-0.431861,-0.325780,-3.540904,-0.000000,0.106081,-3.336850,-3.200000
4.574846,-0.434148,-0.328222,-3.540904,-0.000000,0.105927,-3.279219,-3.200000
4.578112,-0.437581,-0.331884,-3.589744,46.023368,0.105697,-3.371429,-3.200000
4.580360,-0.439871,-0.334020,-3.540904,-0.000000,0.105851,-3.279219,-3.200000
4.583710,-0.443308,-0.337987,-3.589744,-0.000000,0.105320,-3.290745,-3.200000
4.587080,-0.446747,-0.341650,-3.589744,-0.000000,0.105098,-3.313797,-3.200000
4.589324,-0.449042,-0.344396,-3.589744,-0.000000,0.104645,-3.256166,-3.100000
4.592568,-0.452485,-0.348058,-3.638584,47.342272,0.104427,-3.210061,-3.100000
4.594821,-0.454782,-0.350500,-3.638584,-0.000000,0.104283,-3.256166,-3.100000
4.598091,-0.458230,-0.354162,-3.638584,-0.000000,0.104068,-3.187009,-3.100000
4.601392,-0.461680,-0.358129,-3.638584,-0.000000,0.103551,-3.175482,-3.100000
4.603598,-0.463982,-0.360571,-3.638584,-0.000000,0.103411,-3.244640,-3.200000
4.606888,-0.467436,-0.363928,-3.638584,-0.000000,0.103508,-3.163956,-3.200000
4.609122,-0.469740,-0.366674,-3.638584,-0.000000,0.103066,-3.244640,-3.200000
4.612393,-0.473199,-0.370031,-3.638584,-0.000000,0.103168,-3.210061,-3.200000
4.614651,-0.475506,-0.372168,-3.638584,-0.000000,0.103338,-3.175482,-3.200000
4.617946,-0.478969,-0.375830,-3.638584,-0.000000,0.103139,-3.233114,-3.200000
4.620135,-0.481278,-0.377966,-3.638584,-0.000000,0.103312,-3.152430,-3.200000
4.623435,-0.484745,-0.381628,-3.638584,41.857379,0.103117,-3.233114,-3.200000
4.626870,-0.488214,-0.384985,-3.589744,-0.000000,0.103229,-3.163956,-3.200000
4.629069,-0.490529,-0.387121,-3.589744,-0.000000,0.103407,-3.198535,-3.200000
4.632363,-0.494002,-0.390478,-3.589744,-0.000000,0.103524,-3.256166,-3.200000
4.634583,-0.496319,-0.392615,-3.589744,-0.000000,0.103704,-3.198535,-3.200000
4.637884,-0.499797,-0.395666,-3.540904,-0.000000,0.104130,-3.290745,-3.100000
4.640102,-0.502116,-0.398108,-3.540904,-0.000000,0.104009,-3.198535,-3.100000
4.643389,-0.505598,-0.401160,-3.492063,-44.167747,0.104439,-3.302271,-3.100000
4.645572,-0.507921,-0.403296,-3.492063,-0.000000,0.104625,-3.233114,-3.100000
4.648884,-0.511407,-0.406958,-3.492063,-0.000000,0.104448,-3.302271,-3.100000
4.651061,-0.513732,-0.409094,-3.492063,-0.000000,0.104637,-3.256166,-3.100000
4.654351,-0.517222,-0.412451,-3.492063,-0.000000,0.104770,-3.279219,-3.100000
4.657659,-0.520714,-0.415503,-3.492063,-0.000000,0.105211,-3.313797,-3.100000
4.659835,-0.523044,-0.417945,-3.492063,-0.000000,0.105099,-3.256166,-3.100000
4.663189,-0.526540,-0.421607,-3.492063,-0.000000,0.104934,-3.348376,-3.100000
4.665423,-0.528873,-0.423743,-3.492063,-0.000000,0.105130,-3.279219,-3.100000
4.668739,-0.532374,-0.427100,-3.492063,-0.000000,0.105274,-3.313797,-3.100000
4.672029,-0.535877,-0.430762,-3.492063,-0.000000,0.105115,-3.371429,-3.100000
4.674238,-0.538214,-0.432898,-3.492063,-0.000000,0.105315,-3.302271,-3.200000
4.676446,-0.540552,-0.435035,-3.492063,-0.000000,0.105517,-3.359902,-3.200000
4.679759,-0.544061,-0.438697,-3.492063,-0.000000,0.105364,-3.336850,-3.200000
4.681964,-0.546401,-0.440528,-3.492063,-0.000000,0.105873,-3.382955,-3.200000
4.685326,-0.549914,-0.443885,-3.443223,-0.000000,0.106029,-3.371429,-3.200000
4.687536,-0.552258,-0.446326,-3.443223,-0.000000,0.105931,-3.394481,-3.200000
4.690860,-0.555775,-0.449378,-3.443223,-0.000000,0.106397,-3.406007,-3.200000
4.693115,-0.558121,-0.451514,-3.443223,-0.000000,0.106607,-3.463639,-3.200000
4.696425,-0.561643,-0.454566,-3.394383,-0.000000,0.107077,-3.440586,-3.200000
4.698616,-0.563992,-0.456703,-3.394383,-0.000000,0.107289,-3.521270,-3.300000
4.701898,-0.567518,-0.459449,-3.394383,-0.000000,0.108068,-3.521270,-3.300000
4.704084,-0.569869,-0.461585,-3.345543,-0.000000,0.108284,-3.532796,-3.300000
4.707374,-0.573399,-0.464332,-3.345543,-0.000000,0.109067,-3.567375,-3.300000
4.709585,-0.575754,-0.466163,-3.296703,-0.000000,0.109590,-3.625006,-3.300000
4.712907,-0.579287,-0.469215,-3.296703,-0.000000,0.110073,-3.625006,-3.300000
4.715091,-0.581645,-0.471046,-3.247863,-44.196335,0.110599,-3.694164,-3.300000
4.718391,-0.585183,-0.473793,-3.247863,-0.000000,0.111390,-3.694164,-3.300000
4.720620,-0.587543,-0.475624,-3.199023,-42.535302,0.111919,-3.751795,-3.400000
4.723985,-0.591085,-0.478676,-3.199023,-0.000000,0.112409,-3.751795,-3.400000
4.726190,-0.593448,-0.480507,-3.199023,-0.000000,0.112941,-3.832479,-3.400000
4.729490,-0.596994,-0.483253,-3.150183,-0.000000,0.113741,-3.809426,-3.400000
4.732762,-0.600543,-0.485695,-3.101343,-41.242201,0.114848,-3.913162,-3.400000
4.734954,-0.602910,-0.487526,-3.101343,-0.000000,0.115384,-3.878584,-3.400000
4.738222,-0.606463,-0.490272,-3.101343,-0.000000,0.116190,-3.982320,-3.400000
4.740461,-0.608833,-0.492103,-3.101343,-0.000000,0.116729,-3.947741,-3.500000
4.743728,-0.612390,-0.495155,-3.101343,-0.000000,0.117234,-4.028425,-3.500000
4.745915,-0.614762,-0.496986,-3.052503,-46.887162,0.117776,-4.028425,-3.500000
4.749177,-0.618323,-0.500038,-3.052503,-0.000000,0.118285,-4.074530,-3.500000
4.752435,-0.621887,-0.503090,-3.052503,-0.000000,0.118797,-4.063004,-3.500000
4.754607,-0.624264,-0.505226,-3.101343,43.299516,0.119038,-4.097582,-3.500000
4.757869,-0.627832,-0.508278,-3.101343,-0.000000,0.119554,-4.097582,-3.600000
4.760058,-0.630211,-0.510109,-3.101343,-0.000000,0.120102,-4.189792,-3.600000
4.763340,-0.633783,-0.513161,-3.101343,-0.000000,0.120622,-4.155214,-3.600000
4.765526,-0.636166,-0.515297,-3.101343,-0.000000,0.120868,-4.212845,-3.600000
4.768826,-0.639741,-0.518349,-3.101343,-0.000000,0.121392,-4.178266,-3.600000
4.771007,-0.642127,-0.520485,-3.101343,-0.000000,0.121641,-4.270476,-3.700000
4.774277,-0.645706,-0.523537,-3.101343,-0.000000,0.122169,-4.224371,-3.700000
4.776496,-0.648094,-0.525978,-3.101343,-0.000000,0.122116,-4.293529,-3.700000
4.779770,-0.651678,-0.528725,-3.101343,-0.000000,0.122953,-4.282002,-3.800000
4.781949,-0.654069,-0.530861,-3.101343,-0.000000,0.123208,-4.362686,-3.800000
4.785216,-0.657657,-0.533913,-3.101343,-0.000000,0.123744,-4.328107,-3.800000
4.787394,-0.660051,-0.535744,-3.101343,-0.000000,0.124306,-4.397265,-3.900000
4.790719,-0.663643,-0.538796,-3.101343,-0.000000,0.124847,-4.385739,-3.900000
4.792916,-0.666039,-0.540627,-3.101343,-0.000000,0.125412,-4.466422,-3.900000
4.796254,-0.669635,-0.543069,-3.052503,-0.000000,0.126567,-4.454896,-4.000000
4.798458,-0.672034,-0.545205,-3.052503,-0.000000,0.126829,-4.547106,-4.000000
4.801726,-0.675635,-0.547646,-3.003663,-44.678301,0.127989,-4.558632,-4.100000
4.803935,-0.678036,-0.549477,-3.003663,-0.000000,0.128559,-4.639316,-4.100000
4.807210,-0.681641,-0.551614,-2.954823,-0.000000,0.130027,-4.662369,-4.100000
4.809389,-0.684045,-0.553140,-2.954823,-0.000000,0.130906,-4.685421,-4.200000
4.812695,-0.687654,-0.555581,-2.905983,-0.000000,0.132073,-4.812210,-4.200000
4.814915,-0.690061,-0.557107,-2.905983,-0.000000,0.132954,-4.789158,-4.200000
4.818212,-0.693674,-0.559548,-2.857143,-0.000000,0.134126,-4.892894,-4.200000
4.820391,-0.696084,-0.561074,-2.808303,-43.978105,0.135010,-4.950525,-4.300000
4.823668,-0.699701,-0.563516,-2.808303,-0.000000,0.136185,-4.962051,-4.300000
4.825944,-0.702114,-0.565347,-2.808303,-0.000000,0.136767,-5.065788,-4.300000
4.829273,-0.705735,-0.567483,-2.759463,-0.000000,0.138252,-5.042735,-4.300000
4.831476,-0.708150,-0.569314,-2.759463,-0.000000,0.138836,-5.134945,-4.400000
4.834750,-0.711776,-0.571756,-2.759463,-0.000000,0.140020,-5.204103,-4.400000
4.836983,-0.714194,-0.573587,-2.759463,-0.000000,0.140607,-5.204103,-4.400000
