Time,TargetPosition,CurrentPosition,Velocity,Acceleration,Error,Current,Torque
63.037437,-0.231326,0.080415,-5.445665,-46.694783,0.311741,-11.808645,-5.800000
63.039627,-0.242313,0.078279,-5.347985,-46.822860,0.320592,-12.246642,-6.100000
63.042957,-0.259116,0.075837,-5.152625,-44.619911,0.334954,-12.811429,-6.400000
63.045141,-0.270206,0.074617,-5.006105,-90.943402,0.344823,-13.203321,-6.700000
63.048426,-0.286985,0.072175,-4.859585,-44.824948,0.359160,-13.883370,-7.000000
63.051706,-0.303850,0.069734,-4.713065,-0.000000,0.373584,-14.413578,-7.400000
63.053940,-0.315397,0.068208,-4.615385,-41.772025,0.383605,-14.909206,-7.700000
63.057233,-0.332505,0.064851,-4.517705,-46.951642,0.397356,-15.473993,-7.900000
63.059491,-0.344298,0.062409,-4.517705,-0.000000,0.406707,-15.911990,-8.100000
63.061785,-0.356321,0.059052,-4.517705,43.921529,0.415374,-16.280830,-8.300000
63.065085,-0.373701,0.053864,-4.566545,44.177272,0.427566,-16.903248,-8.800000
63.068360,-0.391042,0.048066,-4.664225,45.200797,0.439108,-17.456508,-9.000000
63.070544,-0.402647,0.043793,-4.713065,-0.000000,0.446441,-17.779243,-9.300000
63.072729,-0.414297,0.039216,-4.810745,45.542466,0.453513,-18.171136,-9.600000
63.076005,-0.431829,0.032197,-4.957265,45.220753,0.464026,-18.655238,-9.900000
63.078216,-0.443699,0.027924,-5.054945,42.263258,0.471623,-19.047131,-10.200000
63.081485,-0.461310,0.020905,-5.152625,45.940797,0.482215,-19.600391,-10.500000
63.083668,-0.473109,0.016632,-5.201465,-0.000000,0.489742,-19.957705,-10.800000
63.086961,-0.490955,0.010529,-5.299145,43.705998,0.501484,-20.430281,-11.500000
63.089165,-0.502931,0.006561,-5.347985,42.766182,0.509492,-20.879805,-11.900000
63.092460,-0.520881,0.001068,-5.347985,-0.000000,0.521949,-21.317802,-12.300000
63.094700,-0.533114,-0.002594,-5.347985,-0.000000,0.530519,-21.778852,-12.600000
63.097989,-0.551111,-0.007782,-5.347985,-0.000000,0.543328,-22.355165,-13.000000
63.100196,-0.563206,-0.011139,-5.347985,-0.000000,0.552067,-22.516532,-13.700000
63.103484,-0.581268,-0.016022,-5.299145,-0.000000,0.565246,-23.058266,-14.100000
63.105674,-0.593311,-0.019379,-5.299145,-0.000000,0.573932,-23.496264,-14.500000
63.108964,-0.611431,-0.024567,-5.347985,-0.000000,0.586864,-23.600000,-14.800000
63.111170,-0.623592,-0.028229,-5.347985,-0.000000,0.595363,-23.600000,-15.200000
63.114457,-0.641732,-0.034638,-5.445665,43.846321,0.607094,-23.600000,-15.600000
63.116646,-0.653822,-0.039216,-4.713065,-0.000000,0.614606,-23.600000,-15.900000
63.118838,-0.665936,-0.043793,-5.592186,44.484259,0.622143,-23.600000,-16.700000
63.122123,-0.684093,-0.050507,-5.641026,-0.000000,0.633586,-23.600000,-17.100000
63.125410,-0.702269,-0.057221,-5.738706,45.684659,0.645048,20.499438,-17.500000
63.127606,-0.714408,-0.062104,-5.787546,43.455667,0.652304,20.222808,-17.900000
63.129797,-0.726521,-0.067597,-5.934066,87.542740,0.658923,19.796337,-18.300000
63.133113,-0.744845,-0.074617,-6.031746,42.873590,0.670228,19.450549,-18.700000
63.135301,-0.756933,-0.079194,-6.031746,-0.000000,0.677738,19.185446,-19.200000
63.138592,-0.775095,-0.086213,-6.129426,44.746617,0.688882,18.689817,-20.000000
63.140775,-0.787132,-0.090791,-6.178266,44.148710,0.696341,18.390134,-20.400000
63.144058,-0.805213,-0.098726,-5.494505,-0.000000,0.706487,17.663980,-20.800000
63.146264,-0.817347,-0.103304,-6.324786,-0.000000,0.714043,17.502613,-21.200000
63.149543,-0.835361,-0.110018,-6.324786,-0.000000,0.725344,17.030037,-21.600000
63.151729,-0.847348,-0.113680,-6.324786,-0.000000,0.733668,16.626618,-22.400000
63.155016,-0.865338,-0.120394,-6.373626,47.985480,0.744945,16.246252,-22.800000
63.158263,-0.883064,-0.127413,-6.422466,47.048694,0.755652,15.497045,-23.100000
63.160448,-0.894963,-0.131685,-6.422466,-0.000000,0.763277,15.370256,-23.500000
63.162639,-0.906875,-0.135653,-6.422466,-0.000000,0.771223,15.105153,-23.800000
63.165916,-0.924639,-0.142367,-6.422466,-0.000000,0.782273,14.528840,-24.100000
63.168099,-0.936445,-0.146029,-6.422466,-0.000000,0.790416,14.275263,-24.400000
63.171368,-0.954064,-0.153658,-6.520147,43.382044,0.800406,13.618266,-24.900000
63.174647,-0.971667,-0.161898,-6.617827,-0.000000,0.809768,13.307057,-25.200000
63.176854,-0.983477,-0.167391,-6.666667,-0.000000,0.816085,13.041954,-25.400000
63.180143,-1.001010,-0.174716,-6.764347,44.775959,0.826294,12.615482,-25.700000
63.182338,-1.012663,-0.179904,-6.813187,42.846687,0.832759,12.361905,-26.000000
63.185622,-1.030030,-0.188754,-6.959707,49.101153,0.841276,11.612698,-26.600000
63.187805,-1.041525,-0.193942,-6.959707,-0.000000,0.847582,11.555067,-27.000000
63.191086,-1.058717,-0.200961,-7.008547,-0.000000,0.857756,11.243858,-27.300000
63.193277,-1.070148,-0.205539,-7.008547,-0.000000,0.864609,10.863492,-27.700000
63.196556,-1.087170,-0.212253,-7.008547,-0.000000,0.874917,10.148864,-28.100000
63.198746,-1.098484,-0.217136,-7.008547,-0.000000,0.881349,9.826129,-28.500000
63.200929,-1.109707,-0.221714,-7.008547,-0.000000,0.887994,9.687814,-28.900000
63.204208,-1.126475,-0.227817,-6.959707,-0.000000,0.898658,9.203712,-29.600000
63.207484,-1.143114,-0.233616,-6.910867,-0.000000,0.909498,8.742662,-30.000000
63.209669,-1.154146,-0.237583,-6.862027,-0.000000,0.916563,8.362295,-30.300000
63.212948,-1.170597,-0.244602,-6.862027,-0.000000,0.925995,7.970403,-30.600000
63.215136,-1.181503,-0.248875,-6.862027,-0.000000,0.932628,7.693773,-30.900000
63.218439,-1.197855,-0.255894,-6.910867,-0.000000,0.941961,7.451722,-31.400000
63.221715,-1.213940,-0.262913,-6.910867,-0.000000,0.951027,6.852357,-31.700000
63.223902,-1.224602,-0.268101,-6.959707,44.436011,0.956501,6.437411,-31.900000
63.227197,-1.240542,-0.275425,-7.008547,47.386077,0.965117,6.229939,-32.200000
63.229432,-1.251272,-0.280613,-6.275946,-652.804373,0.970659,6.218413,-32.700000
63.232715,-1.266904,-0.288243,-7.106227,771.306801,0.978662,5.376996,-32.900000
63.236004,-1.282410,-0.295872,-7.106227,-0.000000,0.986538,5.273260,-33.200000
63.238204,-1.292694,-0.300755,-7.155067,-0.000000,0.991939,5.100366,-33.400000
63.241585,-1.308354,-0.308080,-7.155067,-0.000000,1.000274,4.316581,-33.700000
63.243817,-1.318599,-0.312657,-7.155067,-0.000000,1.005942,4.143687,-33.900000
63.246083,-1.328917,-0.317845,-7.155067,-0.000000,1.011072,3.924689,-34.500000
63.249398,-1.343869,-0.324865,-7.155067,-0.000000,1.019005,3.809426,-34.800000
63.252709,-1.358621,-0.331579,-7.155067,-0.000000,1.027042,3.290745,-35.100000
63.254895,-1.368263,-0.335546,-7.106227,-0.000000,1.032717,2.956484,-35.300000
63.257085,-1.377841,-0.339513,-6.275946,-0.000000,1.038328,3.117851,-35.600000
63.260456,-1.392422,-0.346227,-6.275946,-0.000000,1.046195,2.414750,-35.900000
63.262660,-1.401846,-0.351110,-6.275946,-0.000000,1.050736,2.334066,-36.100000
63.265952,-1.415768,-0.357824,-6.275946,-0.000000,1.057944,1.677070,-36.600000
63.268140,-1.424909,-0.362097,-7.008547,-0.000000,1.062812,1.492650,-36.900000
63.271427,-1.438478,-0.367590,-6.959707,-0.000000,1.070889,1.008547,-37.100000
63.273653,-1.447557,-0.372168,-6.910867,-43.771370,1.075389,0.847179,-37.300000
63.276952,-1.460835,-0.379797,-6.959707,-0.000000,1.081038,1.043126,-37.500000
63.280280,-1.474016,-0.387427,-7.008547,-0.000000,1.086590,0.236288,-38.000000
63.282469,-1.482569,-0.391699,-7.008547,-0.000000,1.090869,0.259341,-38.200000
63.285780,-1.495326,-0.397803,-6.959707,-0.000000,1.097523,-0.340024,-38.400000
63.289066,-1.507767,-0.404517,-6.959707,44.619911,1.103250,-0.051868,-38.600000
63.292380,-1.520093,-0.410925,-6.959707,-0.000000,1.109168,-0.593602,-39.100000
63.294577,-1.528139,-0.415808,-6.959707,-0.000000,1.112331,-0.870232,-39.300000
63.297865,-1.539991,-0.421912,-6.910867,-0.000000,1.118079,-1.123810,-39.500000
63.300069,-1.547807,-0.425269,-6.813187,-44.101187,1.122538,-1.331282,-39.700000
63.303367,-1.559308,-0.431067,-6.764347,-0.000000,1.128241,-1.665543,-40.100000
63.305587,-1.566920,-0.435645,-6.813187,43.622234,1.131275,-1.711648,-40.300000
63.308886,-1.578027,-0.443275,-6.862027,45.603297,1.134753,-1.584860,-40.600000
63.311088,-1.585306,-0.448463,-6.910867,-0.000000,1.136843,-1.965226,-40.800000
63.314385,-1.596006,-0.454871,-6.862027,-45.350899,1.141134,-2.207277,-41.000000
63.316580,-1.602991,-0.459754,-6.910867,-0.000000,1.143237,-2.172698,-41.200000
63.319875,-1.613272,-0.467079,-6.959707,44.668559,1.146193,-2.725958,-41.700000
63.322098,-1.620064,-0.472877,-7.008547,44.368640,1.147187,-2.414750,-41.900000
63.325503,-1.630249,-0.480507,-6.275946,-0.000000,1.149742,-2.391697,-42.100000
63.327798,-1.636958,-0.485084,-7.008547,642.163048,1.151873,-2.956484,-42.300000
63.331204,-1.646688,-0.491798,-7.008547,-0.000000,1.154890,-3.117851,-42.500000
63.333463,-1.652986,-0.496071,-6.959707,-0.000000,1.156915,-3.394481,-42.900000
63.336792,-1.662045,-0.502785,-6.959707,-0.000000,1.159260,-3.025641,-43.100000
63.340091,-1.670756,-0.508888,-6.910867,-43.566570,1.161868,-2.772063,-43.200000
63.342269,-1.676362,-0.512551,-6.862027,-44.167747,1.163812,-3.267692,-43.300000
63.344528,-1.682053,-0.516213,-6.813187,-42.828771,1.165840,-3.740269,-43.500000
63.347844,-1.690177,-0.522927,-6.813187,-0.000000,1.167250,-3.279219,-43.800000
63.351059,-1.697789,-0.529946,-6.813187,-0.000000,1.167843,-3.083272,-43.900000
63.353238,-1.702802,-0.535134,-6.910867,42.202310,1.167668,-3.302271,-44.000000
63.356523,-1.710129,-0.542763,-6.959707,-0.000000,1.167366,-3.394481,-44.100000
63.358713,-1.714861,-0.547951,-7.008547,-0.000000,1.166910,-3.429060,-44.300000
63.361935,-1.721599,-0.555886,-6.275946,-0.000000,1.165713,-3.740269,-44.400000
63.365159,-1.728075,-0.564126,-7.155067,45.471701,1.163949,-3.094799,-44.700000
63.367335,-1.732293,-0.569009,-7.203907,-0.000000,1.163284,-3.094799,-44.800000
63.370652,-1.738483,-0.576333,-7.203907,-0.000000,1.162150,-3.636532,-45.000000
63.372856,-1.742439,-0.581216,-7.203907,-0.000000,1.161223,-3.302271,-45.100000
63.376175,-1.748152,-0.588540,-7.203907,-42.999583,1.159612,-2.760537,-45.200000
63.378371,-1.751771,-0.593423,-7.252747,-0.000000,1.158348,-2.725958,-45.200000
63.381674,-1.756975,-0.601358,-7.301587,46.652246,1.155617,-2.806642,-45.400000
63.383906,-1.760326,-0.606851,-7.350427,44.330234,1.153475,-3.037167,-45.400000
63.386130,-1.763533,-0.612650,-7.399267,-0.000000,1.150883,-2.518486,-45.500000
63.389442,-1.768061,-0.621195,-7.496947,43.548047,1.146866,-2.391697,-45.500000
63.391650,-1.770916,-0.627298,-7.545788,-0.000000,1.143617,-2.656801,-45.600000
63.394996,-1.774990,-0.637675,-7.741148,44.445652,1.137316,-2.241856,-45.700000
63.398359,-1.778779,-0.646525,-7.057387,-610.763304,1.132254,-2.011331,-45.800000
63.400605,-1.781138,-0.652323,-7.057387,-0.000000,1.128814,-1.711648,-45.900000
63.403925,-1.784372,-0.661173,-7.887668,-0.000000,1.123199,-1.550281,-46.000000
63.406184,-1.786400,-0.666972,-7.936508,-0.000000,1.119428,-1.630965,-46.100000
63.409573,-1.789180,-0.674601,-7.936508,-0.000000,1.114579,-0.858706,-46.300000
63.411788,-1.790826,-0.678874,-7.887668,-0.000000,1.111952,-0.489866,-46.400000
63.415093,-1.793030,-0.684977,-7.789988,-0.000000,1.108053,-0.985495,-46.400000
63.417363,-1.794370,-0.689555,-7.741148,-0.000000,1.104815,-0.340024,-46.500000
63.420718,-1.796088,-0.697490,-7.741148,-0.000000,1.098599,-0.259341,-46.500000
63.422922,-1.797048,-0.702068,-7.692308,-42.775112,1.094980,0.063394,-46.400000
63.426237,-1.798238,-0.708782,-7.643468,-0.000000,1.089456,0.754969,-46.400000
63.428433,-1.798858,-0.713359,-7.594628,-45.756089,1.085498,0.743443,-46.300000
63.431725,-1.799537,-0.722210,-7.741148,90.983794,1.077327,0.754969,-46.300000
63.433955,-1.799825,-0.728923,-7.789988,-0.000000,1.070902,1.135336,-46.300000
63.437236,-1.799999,-0.737774,-7.887668,-0.000000,1.062225,1.550281,-46.200000
63.439421,-1.799949,-0.743267,-7.887668,-0.000000,1.056682,1.711648,-46.200000
63.442708,-1.799623,-0.752117,-7.985348,44.120184,1.047506,1.896068,-46.300000
63.445987,-1.798999,-0.761273,-8.083028,-0.000000,1.037727,2.045910,-46.300000
63.448173,-1.798417,-0.765850,-8.034188,-0.000000,1.032567,2.495433,-46.300000
63.450355,-1.797705,-0.769818,-7.936508,-44.091694,1.027887,2.841221,-46.300000
63.453631,-1.796386,-0.775311,-7.789988,681.924142,1.021075,2.852747,-46.300000
63.455849,-1.795325,-0.778973,-7.692308,-41.653114,1.016352,3.429060,-46.200000
63.459194,-1.793466,-0.785077,-7.594628,-45.190826,1.008390,3.463639,-46.100000
63.462532,-1.791304,-0.790570,-7.496947,-45.021981,1.000734,4.016899,-46.000000
63.464723,-1.789718,-0.793927,-7.399267,-0.000000,0.995791,4.431844,-45.900000
63.466923,-1.787992,-0.797284,-7.252747,-86.525876,0.990708,4.662369,-45.700000
63.470237,-1.785140,-0.802472,-7.155067,-43.855708,0.982669,5.042735,-45.500000
63.472459,-1.783060,-0.807050,-7.155067,-0.000000,0.976011,5.146471,-45.200000
63.475750,-1.779731,-0.814679,-7.203907,45.879062,0.965052,5.572943,-45.000000
63.477939,-1.777353,-0.819257,-7.203907,-0.000000,0.958096,5.987888,-44.800000
63.481257,-1.773500,-0.825971,-7.155067,-44.766174,0.947530,6.137729,-44.700000
63.483577,-1.770628,-0.830549,-7.155067,-0.000000,0.940079,6.437411,-44.600000
63.486911,-1.766247,-0.836957,-6.275946,-734.074664,0.929290,6.886935,-44.500000
63.489126,-1.763170,-0.840620,-7.008547,671.639384,0.922550,6.944567,-44.300000
63.492439,-1.758322,-0.846418,-6.959707,-44.746617,0.911905,7.428669,-44.200000
63.494626,-1.754962,-0.849470,-6.862027,-45.868789,0.905493,7.820562,-44.100000
63.497914,-1.749669,-0.853742,-6.715507,-0.000000,0.895927,8.385348,-43.900000
63.500100,-1.745991,-0.856184,-6.568987,-43.409623,0.889807,8.638926,-43.800000
63.503361,-1.740270,-0.859846,-6.422466,-45.051685,0.880424,9.099976,-43.600000
63.506648,-1.734222,-0.863813,-5.494505,-0.000000,0.870409,9.676288,-43.200000
63.508844,-1.730023,-0.866865,-6.178266,-44.942960,0.863158,10.022076,-43.000000
63.512129,-1.723508,-0.872358,-6.178266,-0.000000,0.851149,10.390916,-42.700000
63.514374,-1.718894,-0.876326,-6.178266,44.455298,0.842569,10.621441,-42.500000
63.516632,-1.714124,-0.880598,-6.178266,-0.000000,0.833526,11.047912,-42.300000
63.519951,-1.706874,-0.886702,-6.178266,-0.000000,0.820173,11.624225,-42.100000
63.522162,-1.701889,-0.890974,-6.178266,-0.000000,0.810915,11.889328,-41.800000
63.525467,-1.694208,-0.896773,-6.178266,-0.000000,0.797435,12.511746,-41.600000
63.527675,-1.688923,-0.900435,-6.129426,-0.000000,0.788488,12.650061,-41.500000
63.530968,-1.680814,-0.905318,-6.080586,-0.000000,0.775496,13.214847,-41.300000
63.533150,-1.675292,-0.908370,-5.982906,-46.095862,0.766923,13.733529,-41.200000
63.536433,-1.666766,-0.912032,-5.885226,-0.000000,0.754735,14.309841,-41.000000
63.538615,-1.660953,-0.914168,-5.738706,-44.120184,0.746785,14.586471,-40.600000
63.541887,-1.652018,-0.916609,-5.543346,-92.254002,0.735408,15.174310,-40.300000
63.544058,-1.645948,-0.918441,-5.445665,668.570536,0.727507,15.508571,-40.100000
63.547363,-1.636491,-0.920882,-5.250305,-42.882565,0.715609,16.119463,-39.800000
63.549595,-1.629960,-0.922713,-5.152625,-40.612611,0.707247,16.453724,-39.400000
63.552901,-1.620069,-0.925460,-5.006105,-39.753544,0.694609,16.972405,-38.800000
63.556175,-1.610020,-0.928511,-4.908425,-0.000000,0.681509,17.560244,-38.500000
63.558413,-1.603014,-0.930953,-4.859585,-0.000000,0.672061,17.929084,-38.200000
63.560655,-1.595877,-0.933700,-4.810745,-0.000000,0.662178,18.344029,-38.000000
63.563948,-1.585190,-0.937667,-4.761905,-0.000000,0.647523,18.977973,-37.700000
63.567218,-1.574335,-0.941634,-3.931624,-0.000000,0.632701,19.531233,-37.500000
63.569399,-1.566968,-0.944381,-3.931624,-0.000000,0.622587,19.865495,-37.000000
63.572671,-1.555713,-0.948043,-4.664225,-0.000000,0.607670,20.510965,-36.800000
63.574861,-1.548054,-0.950484,-4.615385,-0.000000,0.597569,20.891331,-36.600000
63.578191,-1.536211,-0.953231,-4.517705,-43.808814,0.582980,21.548327,-36.400000
63.580445,-1.528060,-0.955062,-4.420024,-42.855651,0.572998,21.859536,-36.100000
63.583717,-1.516040,-0.956893,-4.273504,-43.290366,0.559146,22.539585,-35.500000
63.586998,-1.503763,-0.958114,-4.078144,-46.106237,0.545649,23.058266,-35.200000
63.589188,-1.495447,-0.958724,-3.150183,-820.676657,0.536723,23.438632,-34.900000
63.592448,-1.482893,-0.959335,-3.687424,-47.473931,0.523558,23.600000,-34.600000
63.594636,-1.474347,-0.959640,-3.540904,-93.198368,0.514707,23.600000,-34.200000
63.596842,-1.465635,-0.959945,-3.394383,-85.783087,0.505690,23.600000,-33.900000
63.600104,-1.452583,-0.960555,-3.247863,-44.629632,0.492028,23.600000,-33.300000
63.603360,-1.439353,-0.961166,-3.052503,-44.629632,0.478187,23.600000,-32.900000
63.605591,-1.430171,-0.961471,-2.954823,-42.106888,0.468700,23.600000,-32.700000
63.608900,-1.416389,-0.962081,-2.808303,-38.563632,0.454307,-20.245861,-32.400000
63.611088,-1.407165,-0.962692,-2.710623,-45.961412,0.444473,-19.877021,-32.100000
63.614419,-1.392958,-0.963302,-2.612943,-43.071912,0.429656,-19.277656,-31.500000
63.617681,-1.378859,-0.964218,-2.515263,-0.000000,0.414642,-18.701343,-31.300000
63.619891,-1.369203,-0.964523,-2.417582,-44.253621,0.404681,-18.297924,-31.000000
63.623189,-1.354640,-0.965133,-2.319902,-0.000000,0.389507,-17.640928,-30.700000
63.625375,-1.344887,-0.965743,-2.222222,-43.622234,0.379143,-17.237509,-30.400000
63.628720,-1.329812,-0.965743,-2.075702,-42.473567,0.364068,-16.626618,-29.800000
63.630947,-1.319677,-0.965438,-1.978022,-42.403232,0.354239,-16.177094,-29.500000
63.634217,-1.304655,-0.965133,-1.831502,-44.503587,0.339522,-15.462466,-29.100000
63.637508,-1.289372,-0.964828,-1.733822,-0.000000,0.324544,-14.770891,-28.800000
63.639684,-1.279176,-0.965133,-1.636142,-45.961412,0.314043,-14.344420,-28.600000
63.641917,-1.268645,-0.965133,-1.587302,-0.000000,0.303512,-13.906422,-28.000000
63.645191,-1.253075,-0.965133,-1.489621,-45.562725,0.287942,-13.318584,-27.800000
63.648439,-1.237476,-0.964828,-1.391941,-0.000000,0.272648,-12.673114,-27.600000
63.650616,-1.226942,-0.964828,-1.294261,-44.727077,0.262114,-12.212063,-27.400000
63.653886,-1.211001,-0.964523,-1.196581,-43.724656,0.246478,-11.485910,-27.200000
63.656089,-1.200183,-0.964218,-1.147741,-43.827559,0.235965,-11.001807,-26.800000
63.659355,-1.184032,-0.964218,-1.050061,-44.688048,0.219814,-10.321758,-26.600000
63.662622,-1.167748,-0.963912,-1.001221,-0.000000,0.203836,-9.641709,-26.300000
63.664795,-1.156844,-0.963912,-0.952381,-0.000000,0.192931,-9.157607,-26.100000
63.668054,-1.140393,-0.963607,-0.854701,-41.619263,0.176786,-8.477558,-25.900000
63.670232,-1.129332,-0.963302,-0.805861,-43.153573,0.166030,-7.993455,-25.400000
63.673511,-1.112582,-0.962997,-0.757021,-0.000000,0.149586,-7.278828,-25.200000
63.676789,-1.095724,-0.962387,-0.659341,-46.220671,0.133338,-6.598779,-24.900000
63.678973,-1.084432,-0.962081,-0.610501,-43.253803,0.122351,-6.137729,-24.700000
63.682265,-1.067327,-0.961166,-0.512821,-44.426374,0.106161,-5.503785,-24.500000
63.684458,-1.055873,-0.960250,-0.415140,-48.393577,0.095623,-5.088840,-24.200000
63.687745,-1.038630,-0.958724,-0.317460,-48.370723,0.079905,-4.420317,-24.000000
63.691083,-1.021022,-0.956283,-0.122100,-85.819025,0.064739,-3.774847,-23.900000
63.693267,-1.009453,-0.954452,-0.024420,-45.200797,0.055002,-3.406007,-23.700000
63.696546,-0.992014,-0.951400,0.170940,-44.766174,0.040614,-2.783590,-23.600000
63.698742,-0.980290,-0.948959,0.317460,-43.622234,0.031331,-2.483907,-23.200000
63.702038,-0.962632,-0.944381,0.610501,-90.923219,0.018251,-1.976752,-23.000000
63.705319,-0.944976,-0.939803,0.854701,-44.091694,0.005173,-1.492650,-22.700000
63.707526,-0.933068,-0.936141,1.050061,-86.343525,-0.003073,-1.089231,-22.400000
63.710837,-0.915145,-0.930343,1.343101,-96.422693,-0.015197,-0.697338,-22.100000
63.713016,-0.903318,-0.926375,1.587302,-93.731417,-0.023057,-0.420708,-21.400000
63.716299,-0.885452,-0.919661,1.880342,-87.580168,-0.034210,-0.121026,-21.100000
63.719574,-0.867575,-0.912947,2.222222,-131.201972,-0.045372,0.201709,-20.700000
63.721812,-0.855339,-0.908064,2.417582,-85.711302,-0.052726,0.628181,-20.200000
63.725121,-0.837205,-0.900740,2.759463,-88.718065,-0.063535,1.020073,-19.800000
